# == pyFAI calibration ==
# Distance Sample to Detector: 0.400151958433 m
# PONI: 1.472e-01, 1.496e-01 m
# Rotations: -0.001085 0.000539 -0.000000 rad
# 
# == Fit2d calibration ==
# Distance Sample-beamCenter: 400.152 mm
# Center: x=1500.210, y=1474.586 pix
# Tilt: 0.069 deg  TiltPlanRot: 26.426 deg
# 
# Detector Detector	 Spline= None	 PixelSize= 1.000e-04, 1.000e-04 m
#    Detector has a mask: False 
#    Detector has a dark current: False 
#    detector has a flat field: False 
# 
# Wavelength: 4.12969e-11 m
# Mask applied: None
# Dark current applied: None
# Flat field applied: None
# Polarization factor: None
# Normalization factor: None
#
# 2th_deg	 I
6.000256231E+00  6.316762418E-02
6.006831854E+00  -3.376104236E-01
6.013407478E+00  5.095654726E-01
6.019983101E+00  6.318518519E-02
6.026558724E+00  -3.579323590E-01
6.033134347E+00  -5.965290666E-01
6.039709971E+00  4.990654588E-01
6.046285594E+00  1.068004251E+00
6.052861217E+00  9.817202687E-01
6.059436840E+00  8.056159019E-01
6.066012464E+00  1.451697588E+00
6.072588087E+00  9.571652412E-01
6.079163710E+00  3.894433379E-01
6.085739334E+00  1.343948245E+00
6.092314957E+00  2.390636921E+00
6.098890580E+00  3.404765606E+00
6.105466203E+00  3.726620436E+00
6.112041827E+00  4.397038460E+00
6.118617450E+00  3.323396921E+00
6.125193073E+00  1.720077515E+00
6.131768696E+00  -3.087961972E-01
6.138344320E+00  -1.228749394E+00
6.144919943E+00  -2.612306774E-01
6.151495566E+00  1.294278145E+00
6.158071190E+00  1.564365625E+00
6.164646813E+00  1.094125032E+00
6.171222436E+00  9.354241490E-01
6.177798059E+00  2.827887833E-01
6.184373683E+00  8.965260983E-01
6.190949306E+00  4.513766170E-01
6.197524929E+00  -5.454283357E-01
6.204100552E+00  -8.308671117E-01
6.210676176E+00  -1.953637302E-01
6.217251799E+00  1.348565519E-01
6.223827422E+00  -2.057798803E-01
6.230403045E+00  5.606502891E-01
6.236978669E+00  8.545061350E-01
6.243554292E+00  1.311249733E+00
6.250129915E+00  1.638508916E+00
6.256705539E+00  1.845900774E+00
6.263281162E+00  2.823192358E+00
6.269856785E+00  1.494583726E+00
6.276432408E+00  1.518359661E+00
6.283008032E+00  2.456236124E+00
6.289583655E+00  3.265443802E+00
6.296159278E+00  3.953407764E+00
6.302734901E+00  3.773205519E+00
6.309310525E+00  4.060159683E+00
6.315886148E+00  3.972021103E+00
6.322461771E+00  4.425471783E+00
6.329037394E+00  4.624207973E+00
6.335613018E+00  5.393937588E+00
6.342188641E+00  5.659000397E+00
6.348764264E+00  4.932918549E+00
6.355339888E+00  4.130491257E+00
6.361915511E+00  4.126469135E+00
6.368491134E+00  5.325212002E+00
6.375066757E+00  6.710802555E+00
6.381642381E+00  6.993338585E+00
6.388218004E+00  7.188308716E+00
6.394793627E+00  7.892000198E+00
6.401369250E+00  8.819822311E+00
6.407944874E+00  1.029627895E+01
6.414520497E+00  1.080546951E+01
6.421096120E+00  1.095711136E+01
6.427671743E+00  1.025553608E+01
6.434247367E+00  9.732446671E+00
6.440822990E+00  7.927093506E+00
6.447398613E+00  7.031497002E+00
6.453974237E+00  6.782006264E+00
6.460549860E+00  7.813280106E+00
6.467125483E+00  8.270572662E+00
6.473701106E+00  9.216462135E+00
6.480276730E+00  9.644533157E+00
6.486852353E+00  9.941052437E+00
6.493427976E+00  7.651350975E+00
6.500003599E+00  6.595571995E+00
6.506579223E+00  5.652882099E+00
6.513154846E+00  6.298611641E+00
6.519730469E+00  6.106728554E+00
6.526306092E+00  6.351429462E+00
6.532881716E+00  6.925135612E+00
6.539457339E+00  9.549938202E+00
6.546032962E+00  1.191579819E+01
6.552608586E+00  1.262464428E+01
6.559184209E+00  1.232416725E+01
6.565759832E+00  1.155131912E+01
6.572335455E+00  1.165491295E+01
6.578911079E+00  1.172554016E+01
6.585486702E+00  1.147177410E+01
6.592062325E+00  1.112273788E+01
6.598637948E+00  9.567240715E+00
6.605213572E+00  8.357913971E+00
6.611789195E+00  6.438722610E+00
6.618364818E+00  5.491143703E+00
6.624940441E+00  5.869452477E+00
6.631516065E+00  6.249879837E+00
6.638091688E+00  7.207510948E+00
6.644667311E+00  8.537567139E+00
6.651242935E+00  9.884560585E+00
6.657818558E+00  9.465927124E+00
6.664394181E+00  9.638929367E+00
6.670969804E+00  9.132113457E+00
6.677545428E+00  9.328766823E+00
6.684121051E+00  1.046297646E+01
6.690696674E+00  1.106617928E+01
6.697272297E+00  1.172523022E+01
6.703847921E+00  1.259193802E+01
6.710423544E+00  1.189235783E+01
6.716999167E+00  1.112357903E+01
6.723574790E+00  9.887960434E+00
6.730150414E+00  9.958567619E+00
6.736726037E+00  1.025134754E+01
6.743301660E+00  9.569998741E+00
6.749877284E+00  9.560807228E+00
6.756452907E+00  9.882075310E+00
6.763028530E+00  9.786390305E+00
6.769604153E+00  9.866956711E+00
6.776179777E+00  9.659637451E+00
6.782755400E+00  1.076501274E+01
6.789331023E+00  1.130174065E+01
6.795906646E+00  1.103105831E+01
6.802482270E+00  1.017390728E+01
6.809057893E+00  9.962441444E+00
6.815633516E+00  1.013952923E+01
6.822209139E+00  1.039478016E+01
6.828784763E+00  1.168143559E+01
6.835360386E+00  1.117705727E+01
6.841936009E+00  1.188801861E+01
6.848511633E+00  1.159750080E+01
6.855087256E+00  1.087502098E+01
6.861662879E+00  9.499766350E+00
6.868238502E+00  8.904456139E+00
6.874814126E+00  9.630908012E+00
6.881389749E+00  1.106661892E+01
6.887965372E+00  1.137226295E+01
6.894540995E+00  1.014478779E+01
6.901116619E+00  9.988704681E+00
6.907692242E+00  1.082860565E+01
6.914267865E+00  1.078294277E+01
6.920843488E+00  1.119992733E+01
6.927419112E+00  1.108502579E+01
6.933994735E+00  1.106580544E+01
6.940570358E+00  9.140964508E+00
6.947145982E+00  8.111973763E+00
6.953721605E+00  8.287911415E+00
6.960297228E+00  8.451526642E+00
6.966872851E+00  8.165391922E+00
6.973448475E+00  6.251144409E+00
6.980024098E+00  5.487729073E+00
6.986599721E+00  5.783754349E+00
6.993175344E+00  6.642330647E+00
6.999750968E+00  6.080742359E+00
7.006326591E+00  6.056709766E+00
7.012902214E+00  4.842897415E+00
7.019477837E+00  4.200732708E+00
7.026053461E+00  4.340604782E+00
7.032629084E+00  4.758042812E+00
7.039204707E+00  4.768377304E+00
7.045780331E+00  4.433248997E+00
7.052355954E+00  3.587216616E+00
7.058931577E+00  3.185167789E+00
7.065507200E+00  3.204414845E+00
7.072082824E+00  3.520184278E+00
7.078658447E+00  3.313574076E+00
7.085234070E+00  3.699974537E+00
7.091809693E+00  3.078922749E+00
7.098385317E+00  2.104808569E+00
7.104960940E+00  1.948109627E+00
7.111536563E+00  1.963118911E+00
7.118112186E+00  1.998985291E+00
7.124687810E+00  2.083067417E+00
7.131263433E+00  2.992228746E+00
7.137839056E+00  3.857089996E+00
7.144414680E+00  4.311204433E+00
7.150990303E+00  3.059910297E+00
7.157565926E+00  1.445033193E+00
7.164141549E+00  1.242252946E+00
7.170717173E+00  2.234105587E+00
7.177292796E+00  3.546655893E+00
7.183868419E+00  3.896571398E+00
7.190444042E+00  3.536679029E+00
7.197019666E+00  3.188340902E+00
7.203595289E+00  3.664744854E+00
7.210170912E+00  3.975640297E+00
7.216746535E+00  4.075140953E+00
7.223322159E+00  3.021391153E+00
7.229897782E+00  2.089599609E+00
7.236473405E+00  4.527032673E-01
7.243049029E+00  -5.390965939E-01
7.249624652E+00  -1.188343912E-01
7.256200275E+00  1.647704124E+00
7.262775898E+00  3.242838144E+00
7.269351522E+00  4.310757160E+00
7.275927145E+00  3.801804543E+00
7.282502768E+00  3.912661314E+00
7.289078391E+00  3.668859720E+00
7.295654015E+00  2.714577198E+00
7.302229638E+00  2.707164288E+00
7.308805261E+00  2.397952557E+00
7.315380884E+00  2.529226303E+00
7.321956508E+00  1.622061253E+00
7.328532131E+00  2.467292070E+00
7.335107754E+00  2.759543419E+00
7.341683378E+00  2.914857626E+00
7.348259001E+00  3.712052345E+00
7.354834624E+00  4.332270622E+00
7.361410247E+00  4.643651485E+00
7.367985871E+00  4.435949326E+00
7.374561494E+00  5.224247456E+00
7.381137117E+00  4.827083588E+00
7.387712740E+00  5.344967365E+00
7.394288364E+00  3.341780901E+00
7.400863987E+00  2.448050976E+00
7.407439610E+00  1.196156383E+00
7.414015233E+00  7.639827728E-01
7.420590857E+00  1.261057854E+00
7.427166480E+00  2.189002514E+00
7.433742103E+00  2.852910042E+00
7.440317727E+00  1.655048013E+00
7.446893350E+00  3.321424246E+00
7.453468973E+00  4.178641796E+00
7.460044596E+00  2.883637667E+00
7.466620220E+00  3.594745100E-01
7.473195843E+00  4.757603705E-01
7.479771466E+00  1.642374136E-02
7.486347089E+00  -2.507069409E-01
7.492922713E+00  4.881086051E-01
7.499498336E+00  -3.457102776E-01
7.506073959E+00  2.974422276E-01
7.512649582E+00  3.087365627E-01
7.519225206E+00  -3.165185452E-03
7.525800829E+00  1.752919704E-01
7.532376452E+00  7.248108387E-01
7.538952076E+00  1.350809336E+00
7.545527699E+00  1.123946190E+00
7.552103322E+00  9.771906734E-01
7.558678945E+00  8.269147277E-01
7.565254569E+00  1.883702278E-01
7.571830192E+00  6.017133594E-01
7.578405815E+00  1.228438973E+00
7.584981438E+00  1.896301270E+00
7.591557062E+00  3.491158962E+00
7.598132685E+00  3.647891760E+00
7.604708308E+00  4.400790691E+00
7.611283931E+00  3.901330471E+00
7.617859555E+00  3.603228092E+00
7.624435178E+00  4.236074924E+00
7.631010801E+00  5.502601147E+00
7.637586425E+00  4.631900311E+00
7.644162048E+00  4.215852737E+00
7.650737671E+00  4.589008808E+00
7.657313294E+00  6.188942432E+00
7.663888918E+00  6.167087555E+00
7.670464541E+00  6.874094009E+00
7.677040164E+00  5.964804173E+00
7.683615787E+00  5.668764114E+00
7.690191411E+00  5.490906239E+00
7.696767034E+00  5.836060524E+00
7.703342657E+00  5.669601440E+00
7.709918281E+00  5.034048080E+00
7.716493904E+00  4.457268238E+00
7.723069527E+00  5.100427628E+00
7.729645150E+00  6.891292572E+00
7.736220774E+00  1.087090778E+01
7.742796397E+00  1.423217106E+01
7.749372020E+00  1.438965988E+01
7.755947643E+00  9.644668579E+00
7.762523267E+00  5.848294735E+00
7.769098890E+00  3.597729921E+00
7.775674513E+00  4.200125217E+00
7.782250136E+00  4.741927624E+00
7.788825760E+00  5.584975243E+00
7.795401383E+00  4.986124039E+00
7.801977006E+00  5.139242172E+00
7.808552630E+00  5.933021545E+00
7.815128253E+00  6.603809357E+00
7.821703876E+00  6.859632969E+00
7.828279499E+00  7.267894268E+00
7.834855123E+00  7.537107944E+00
7.841430746E+00  6.966609001E+00
7.848006369E+00  8.132099152E+00
7.854581992E+00  8.351957321E+00
7.861157616E+00  8.618387222E+00
7.867733239E+00  9.930920601E+00
7.874308862E+00  1.100588322E+01
7.880884485E+00  1.325198555E+01
7.887460109E+00  1.565069199E+01
7.894035732E+00  1.792955971E+01
7.900611355E+00  1.931565857E+01
7.907186979E+00  2.035002518E+01
7.913762602E+00  2.117965317E+01
7.920338225E+00  2.213561821E+01
7.926913848E+00  2.260563469E+01
7.933489472E+00  2.420301056E+01
7.940065095E+00  2.609768867E+01
7.946640718E+00  2.834975052E+01
7.953216341E+00  2.947338486E+01
7.959791965E+00  3.109556961E+01
7.966367588E+00  3.267824554E+01
7.972943211E+00  3.652466202E+01
7.979518834E+00  4.073201370E+01
7.986094458E+00  4.592045212E+01
7.992670081E+00  5.139371490E+01
7.999245704E+00  5.724997330E+01
8.005821328E+00  6.224511719E+01
8.012396951E+00  6.761355591E+01
8.018972574E+00  7.362680054E+01
8.025548197E+00  8.087130737E+01
8.032123821E+00  9.003069305E+01
8.038699444E+00  1.022270660E+02
8.045275067E+00  1.157075195E+02
8.051850690E+00  1.306502991E+02
8.058426314E+00  1.481872559E+02
8.065001937E+00  1.713775177E+02
8.071577560E+00  1.999837952E+02
8.078153183E+00  2.345080414E+02
8.084728807E+00  2.772237244E+02
8.091304430E+00  3.302041016E+02
8.097880053E+00  3.853564148E+02
8.104455677E+00  4.455424805E+02
8.111031300E+00  5.019493408E+02
8.117606923E+00  5.571755981E+02
8.124182546E+00  6.167764282E+02
8.130758170E+00  6.637738647E+02
8.137333793E+00  7.201981201E+02
8.143909416E+00  7.510057983E+02
8.150485039E+00  8.008833008E+02
8.157060663E+00  8.213156128E+02
8.163636286E+00  8.287083740E+02
8.170211909E+00  8.143512573E+02
8.176787532E+00  8.027758179E+02
8.183363156E+00  7.437693481E+02
8.189938779E+00  6.916270752E+02
8.196514402E+00  6.174559937E+02
8.203090026E+00  5.561965332E+02
8.209665649E+00  4.904414062E+02
8.216241272E+00  4.295104370E+02
8.222816895E+00  3.816292419E+02
8.229392519E+00  3.358500061E+02
8.235968142E+00  2.995950928E+02
8.242543765E+00  2.665593567E+02
8.249119388E+00  2.382402802E+02
8.255695012E+00  2.138903198E+02
8.262270635E+00  1.925231628E+02
8.268846258E+00  1.745802002E+02
8.275421881E+00  1.567767639E+02
8.281997505E+00  1.423818817E+02
8.288573128E+00  1.281694946E+02
8.295148751E+00  1.166327515E+02
8.301724375E+00  1.052482300E+02
8.308299998E+00  9.596759796E+01
8.314875621E+00  8.833089447E+01
8.321451244E+00  8.359447479E+01
8.328026868E+00  7.876957703E+01
8.334602491E+00  7.434790802E+01
8.341178114E+00  6.996717072E+01
8.347753737E+00  6.613665771E+01
8.354329361E+00  6.403507996E+01
8.360904984E+00  6.194370270E+01
8.367480607E+00  5.887376022E+01
8.374056230E+00  5.651129532E+01
8.380631854E+00  5.449059677E+01
8.387207477E+00  5.309535217E+01
8.393783100E+00  5.244569016E+01
8.400358724E+00  5.175401306E+01
8.406934347E+00  5.057744980E+01
8.413509970E+00  4.819432068E+01
8.420085593E+00  4.459339142E+01
8.426661217E+00  4.393920898E+01
8.433236840E+00  4.211653519E+01
8.439812463E+00  4.141783524E+01
8.446388086E+00  3.904720688E+01
8.452963710E+00  3.689770126E+01
8.459539333E+00  3.393512344E+01
8.466114956E+00  3.167264748E+01
8.472690579E+00  2.860927391E+01
8.479266203E+00  2.589391327E+01
8.485841826E+00  2.405340195E+01
8.492417449E+00  2.295978928E+01
8.498993073E+00  2.154225349E+01
8.505568696E+00  2.045360947E+01
8.512144319E+00  1.854783440E+01
8.518719942E+00  1.668575287E+01
8.525295566E+00  1.448355198E+01
8.531871189E+00  1.376689720E+01
8.538446812E+00  1.402502632E+01
8.545022435E+00  1.433507156E+01
8.551598059E+00  1.667162514E+01
8.558173682E+00  1.917725182E+01
8.564749305E+00  1.986463356E+01
8.571324928E+00  1.947008896E+01
8.577900552E+00  1.820649910E+01
8.584476175E+00  1.802356529E+01
8.591051798E+00  1.827138329E+01
8.597627422E+00  1.796166611E+01
8.604203045E+00  1.667303276E+01
8.610778668E+00  1.686349297E+01
8.617354291E+00  1.724740982E+01
8.623929915E+00  1.756014252E+01
8.630505538E+00  1.826849937E+01
8.637081161E+00  1.924847031E+01
8.643656784E+00  1.944001389E+01
8.650232408E+00  1.995496178E+01
8.656808031E+00  2.130066109E+01
8.663383654E+00  2.310798836E+01
8.669959277E+00  2.235646057E+01
8.676534901E+00  2.169893456E+01
8.683110524E+00  2.111834335E+01
8.689686147E+00  2.007418442E+01
8.696261771E+00  1.947517967E+01
8.702837394E+00  1.816461372E+01
8.709413017E+00  1.616741753E+01
8.715988640E+00  1.399972820E+01
8.722564264E+00  1.286030579E+01
8.729139887E+00  1.253530693E+01
8.735715510E+00  1.174887753E+01
8.742291133E+00  1.040485191E+01
8.748866757E+00  1.040071297E+01
8.755442380E+00  8.749667168E+00
8.762018003E+00  6.600660324E+00
8.768593626E+00  5.298440456E+00
8.775169250E+00  4.277595520E+00
8.781744873E+00  4.710506439E+00
8.788320496E+00  5.514181614E+00
8.794896120E+00  6.056311607E+00
8.801471743E+00  4.769039154E+00
8.808047366E+00  3.166538000E+00
8.814622989E+00  2.441690445E+00
8.821198613E+00  2.674586058E+00
8.827774236E+00  3.345216274E+00
8.834349859E+00  3.671364546E+00
8.840925482E+00  4.116419792E+00
8.847501106E+00  4.394747257E+00
8.854076729E+00  4.844736099E+00
8.860652352E+00  5.750576496E+00
8.867227975E+00  8.291967392E+00
8.873803599E+00  1.185124397E+01
8.880379222E+00  1.345771599E+01
8.886954845E+00  1.404255009E+01
8.893530469E+00  1.348711014E+01
8.900106092E+00  1.335781765E+01
8.906681715E+00  1.382705498E+01
8.913257338E+00  1.407452965E+01
8.919832962E+00  1.445524597E+01
8.926408585E+00  1.530174541E+01
8.932984208E+00  1.678690720E+01
8.939559831E+00  1.689757538E+01
8.946135455E+00  1.732958412E+01
8.952711078E+00  1.650141907E+01
8.959286701E+00  1.582132149E+01
8.965862324E+00  1.645241356E+01
8.972437948E+00  1.859444046E+01
8.979013571E+00  2.149549103E+01
8.985589194E+00  2.305209160E+01
8.992164818E+00  2.542346764E+01
8.998740441E+00  2.478935051E+01
9.005316064E+00  2.509070778E+01
9.011891687E+00  2.430317116E+01
9.018467311E+00  2.665970039E+01
9.025042934E+00  2.833173370E+01
9.031618557E+00  3.044578552E+01
9.038194180E+00  3.054682732E+01
9.044769804E+00  2.982045746E+01
9.051345427E+00  3.015784073E+01
9.057921050E+00  3.217621231E+01
9.064496673E+00  3.381165695E+01
9.071072297E+00  3.607984924E+01
9.077647920E+00  3.887194824E+01
9.084223543E+00  4.205519104E+01
9.090799167E+00  4.343576813E+01
9.097374790E+00  4.474029160E+01
9.103950413E+00  4.586772919E+01
9.110526036E+00  4.671020508E+01
9.117101660E+00  4.990447617E+01
9.123677283E+00  5.274648285E+01
9.130252906E+00  5.690959549E+01
9.136828529E+00  6.071562576E+01
9.143404153E+00  6.452787781E+01
9.149979776E+00  6.540986633E+01
9.156555399E+00  6.689042664E+01
9.163131022E+00  6.862386322E+01
9.169706646E+00  6.992028046E+01
9.176282269E+00  6.861806488E+01
9.182857892E+00  6.699311829E+01
9.189433516E+00  6.481694794E+01
9.196009139E+00  6.445577240E+01
9.202584762E+00  6.388276291E+01
9.209160385E+00  6.372830200E+01
9.215736009E+00  6.338986588E+01
9.222311632E+00  6.321122360E+01
9.228887255E+00  6.115625000E+01
9.235462878E+00  5.781822586E+01
9.242038502E+00  5.548036957E+01
9.248614125E+00  5.336974335E+01
9.255189748E+00  5.054349518E+01
9.261765372E+00  4.799236298E+01
9.268340995E+00  4.673686981E+01
9.274916618E+00  4.769549179E+01
9.281492241E+00  4.897224808E+01
9.288067865E+00  5.040749741E+01
9.294643488E+00  5.169705582E+01
9.301219111E+00  5.453186798E+01
9.307794734E+00  5.858919907E+01
9.314370358E+00  6.378069687E+01
9.320945981E+00  7.137933350E+01
9.327521604E+00  8.118689728E+01
9.334097227E+00  9.287822723E+01
9.340672851E+00  1.093693466E+02
9.347248474E+00  1.284581604E+02
9.353824097E+00  1.559645081E+02
9.360399721E+00  1.898752441E+02
9.366975344E+00  2.288349457E+02
9.373550967E+00  2.676287842E+02
9.380126590E+00  3.019559937E+02
9.386702214E+00  3.303781433E+02
9.393277837E+00  3.510300598E+02
9.399853460E+00  3.645372314E+02
9.406429083E+00  3.740979614E+02
9.413004707E+00  3.830794373E+02
9.419580330E+00  3.964357910E+02
9.426155953E+00  4.060142212E+02
9.432731576E+00  4.205384216E+02
9.439307200E+00  4.263204041E+02
9.445882823E+00  4.196043091E+02
9.452458446E+00  3.984077759E+02
9.459034070E+00  3.663343506E+02
9.465609693E+00  3.251750183E+02
9.472185316E+00  2.853780518E+02
9.478760939E+00  2.489981842E+02
9.485336563E+00  2.181237793E+02
9.491912186E+00  1.927831879E+02
9.498487809E+00  1.716839142E+02
9.505063432E+00  1.538005676E+02
9.511639056E+00  1.389002686E+02
9.518214679E+00  1.280772400E+02
9.524790302E+00  1.217015991E+02
9.531365925E+00  1.172972717E+02
9.537941549E+00  1.142333832E+02
9.544517172E+00  1.125797577E+02
9.551092795E+00  1.145590363E+02
9.557668419E+00  1.182376175E+02
9.564244042E+00  1.246008377E+02
9.570819665E+00  1.296979980E+02
9.577395288E+00  1.343157196E+02
9.583970912E+00  1.397562103E+02
9.590546535E+00  1.456400757E+02
9.597122158E+00  1.514536133E+02
9.603697781E+00  1.570122375E+02
9.610273405E+00  1.619140778E+02
9.616849028E+00  1.654808960E+02
9.623424651E+00  1.667702942E+02
9.630000274E+00  1.671782379E+02
9.636575898E+00  1.648639069E+02
9.643151521E+00  1.621978760E+02
9.649727144E+00  1.575009308E+02
9.656302768E+00  1.540782318E+02
9.662878391E+00  1.489551697E+02
9.669454014E+00  1.426102295E+02
9.676029637E+00  1.354159698E+02
9.682605261E+00  1.291672821E+02
9.689180884E+00  1.226322556E+02
9.695756507E+00  1.153347855E+02
9.702332130E+00  1.080131454E+02
9.708907754E+00  1.009451752E+02
9.715483377E+00  9.285350800E+01
9.722059000E+00  8.534947968E+01
9.728634623E+00  7.872214508E+01
9.735210247E+00  7.233039093E+01
9.741785870E+00  6.612538147E+01
9.748361493E+00  6.108319855E+01
9.754937117E+00  5.592210007E+01
9.761512740E+00  5.282421112E+01
9.768088363E+00  5.006101608E+01
9.774663986E+00  4.627948761E+01
9.781239610E+00  4.317249680E+01
9.787815233E+00  3.921269989E+01
9.794390856E+00  3.458710480E+01
9.800966479E+00  3.110918617E+01
9.807542103E+00  2.943274689E+01
9.814117726E+00  2.690837097E+01
9.820693349E+00  2.559317970E+01
9.827268972E+00  2.447251701E+01
9.833844596E+00  2.429344559E+01
9.840420219E+00  2.446269226E+01
9.846995842E+00  2.465993118E+01
9.853571466E+00  2.403749275E+01
9.860147089E+00  2.417153168E+01
9.866722712E+00  2.388576126E+01
9.873298335E+00  2.336863518E+01
9.879873959E+00  2.303419685E+01
9.886449582E+00  2.438046646E+01
9.893025205E+00  2.634003448E+01
9.899600828E+00  2.900076485E+01
9.906176452E+00  3.177619743E+01
9.912752075E+00  3.422684860E+01
9.919327698E+00  3.803969574E+01
9.925903321E+00  4.067319870E+01
9.932478945E+00  4.418981934E+01
9.939054568E+00  4.758024216E+01
9.945630191E+00  5.067401123E+01
9.952205815E+00  5.394814301E+01
9.958781438E+00  5.698462296E+01
9.965357061E+00  6.237764740E+01
9.971932684E+00  6.877560425E+01
9.978508308E+00  7.636595154E+01
9.985083931E+00  8.346554565E+01
9.991659554E+00  9.061193085E+01
9.998235177E+00  9.712977600E+01
1.000481080E+01  1.032309418E+02
1.001138642E+01  1.097166595E+02
1.001796205E+01  1.168022232E+02
1.002453767E+01  1.234094543E+02
1.003111329E+01  1.308210297E+02
1.003768892E+01  1.381355438E+02
1.004426454E+01  1.462846069E+02
1.005084016E+01  1.523443451E+02
1.005741579E+01  1.587761383E+02
1.006399141E+01  1.640521240E+02
1.007056703E+01  1.687079315E+02
1.007714266E+01  1.745013275E+02
1.008371828E+01  1.766095276E+02
1.009029390E+01  1.756179504E+02
1.009686953E+01  1.716378937E+02
1.010344515E+01  1.651405487E+02
1.011002077E+01  1.560379791E+02
1.011659640E+01  1.440455017E+02
1.012317202E+01  1.337006836E+02
1.012974764E+01  1.252676849E+02
1.013632327E+01  1.186175690E+02
1.014289889E+01  1.109212112E+02
1.014947451E+01  1.023241196E+02
1.015605014E+01  9.281454468E+01
1.016262576E+01  8.447451782E+01
1.016920138E+01  7.752519989E+01
1.017577701E+01  7.289578247E+01
1.018235263E+01  6.998322296E+01
1.018892825E+01  6.491152954E+01
1.019550388E+01  5.934133911E+01
1.020207950E+01  5.410807419E+01
1.020865512E+01  5.065605927E+01
1.021523075E+01  4.676164627E+01
1.022180637E+01  4.391846466E+01
1.022838199E+01  4.146194458E+01
1.023495762E+01  3.962839890E+01
1.024153324E+01  3.915607452E+01
1.024810886E+01  3.764456940E+01
1.025468448E+01  3.683506012E+01
1.026126011E+01  3.618796921E+01
1.026783573E+01  3.616322708E+01
1.027441135E+01  3.565338135E+01
1.028098698E+01  3.585029221E+01
1.028756260E+01  3.728810501E+01
1.029413822E+01  3.784031296E+01
1.030071385E+01  3.792192078E+01
1.030728947E+01  3.744743347E+01
1.031386509E+01  3.851885605E+01
1.032044072E+01  3.777872467E+01
1.032701634E+01  3.762298584E+01
1.033359196E+01  3.825471497E+01
1.034016759E+01  3.852689362E+01
1.034674321E+01  3.874513245E+01
1.035331883E+01  3.769306564E+01
1.035989446E+01  3.596878815E+01
1.036647008E+01  3.355320358E+01
1.037304570E+01  3.156637001E+01
1.037962133E+01  3.028801918E+01
1.038619695E+01  3.043245316E+01
1.039277257E+01  3.137559319E+01
1.039934820E+01  3.092695236E+01
1.040592382E+01  3.211577225E+01
1.041249944E+01  3.105674934E+01
1.041907507E+01  3.040412521E+01
1.042565069E+01  2.963148117E+01
1.043222631E+01  3.032958794E+01
1.043880194E+01  2.980698967E+01
1.044537756E+01  2.882829094E+01
1.045195318E+01  2.705164719E+01
1.045852881E+01  2.606295204E+01
1.046510443E+01  2.499253845E+01
1.047168005E+01  2.372806168E+01
1.047825568E+01  2.212593079E+01
1.048483130E+01  1.961189461E+01
1.049140692E+01  1.741101837E+01
1.049798255E+01  1.521370220E+01
1.050455817E+01  1.324453068E+01
1.051113379E+01  1.155963230E+01
1.051770942E+01  9.439746857E+00
1.052428504E+01  9.216397285E+00
1.053086066E+01  8.613201141E+00
1.053743629E+01  7.310808182E+00
1.054401191E+01  8.109497070E+00
1.055058753E+01  9.318341255E+00
1.055716316E+01  9.100416183E+00
1.056373878E+01  1.071743488E+01
1.057031440E+01  1.293110847E+01
1.057689002E+01  1.307395267E+01
1.058346565E+01  1.214010429E+01
1.059004127E+01  1.179313278E+01
1.059661689E+01  1.168342781E+01
1.060319252E+01  1.218500900E+01
1.060976814E+01  1.168264008E+01
1.061634376E+01  9.572800636E+00
1.062291939E+01  8.536151886E+00
1.062949501E+01  8.412532806E+00
1.063607063E+01  7.648226261E+00
1.064264626E+01  6.439025879E+00
1.064922188E+01  7.231698990E+00
1.065579750E+01  7.301137447E+00
1.066237313E+01  8.627797127E+00
1.066894875E+01  9.775626183E+00
1.067552437E+01  9.912575722E+00
1.068210000E+01  8.508839607E+00
1.068867562E+01  8.276308060E+00
1.069525124E+01  9.263292313E+00
1.070182687E+01  7.649940014E+00
1.070840249E+01  6.880551338E+00
1.071497811E+01  6.395520210E+00
1.072155374E+01  6.938945770E+00
1.072812936E+01  7.225140095E+00
1.073470498E+01  6.436671734E+00
1.074128061E+01  4.711673260E+00
1.074785623E+01  4.373821259E+00
1.075443185E+01  3.576376915E+00
1.076100748E+01  3.045353889E+00
1.076758310E+01  3.442308187E+00
1.077415872E+01  3.528402805E+00
1.078073435E+01  2.960305452E+00
1.078730997E+01  3.334134340E+00
1.079388559E+01  4.416903973E+00
1.080046122E+01  3.272500992E+00
1.080703684E+01  3.650845766E+00
1.081361246E+01  3.770118475E+00
1.082018809E+01  3.619493484E+00
1.082676371E+01  2.992344141E+00
1.083333933E+01  3.560948849E+00
1.083991496E+01  4.455593109E+00
1.084649058E+01  4.253339291E+00
1.085306620E+01  5.187989712E+00
1.085964183E+01  5.551450729E+00
1.086621745E+01  4.971080303E+00
1.087279307E+01  4.053729057E+00
1.087936870E+01  3.832519054E+00
1.088594432E+01  4.577877998E+00
1.089251994E+01  4.282893658E+00
1.089909556E+01  4.358623981E+00
1.090567119E+01  3.688297749E+00
1.091224681E+01  2.861690283E+00
1.091882243E+01  2.213208675E+00
1.092539806E+01  1.806756854E+00
1.093197368E+01  1.583683252E+00
1.093854930E+01  1.100575209E+00
1.094512493E+01  3.520126045E-01
1.095170055E+01  7.207638025E-01
1.095827617E+01  7.434102893E-01
1.096485180E+01  8.398392797E-01
1.097142742E+01  1.789318085E+00
1.097800304E+01  2.523462772E+00
1.098457867E+01  1.186785579E+00
1.099115429E+01  3.920652866E-01
1.099772991E+01  -6.600232124E-01
1.100430554E+01  -1.418465823E-01
1.101088116E+01  -2.057468146E-01
1.101745678E+01  1.125333905E+00
1.102403241E+01  2.191251278E+00
1.103060803E+01  2.910967827E+00
1.103718365E+01  2.979818106E+00
1.104375928E+01  2.781617880E+00
1.105033490E+01  3.035636425E+00
1.105691052E+01  4.044643879E+00
1.106348615E+01  4.079676151E+00
1.107006177E+01  4.523589611E+00
1.107663739E+01  4.589321613E+00
1.108321302E+01  4.224678040E+00
1.108978864E+01  4.307641506E+00
1.109636426E+01  6.584851265E+00
1.110293989E+01  7.636933327E+00
1.110951551E+01  8.366292953E+00
1.111609113E+01  6.894575596E+00
1.112266676E+01  6.393234253E+00
1.112924238E+01  7.677276611E+00
1.113581800E+01  7.833684444E+00
1.114239363E+01  6.540749073E+00
1.114896925E+01  5.791703224E+00
1.115554487E+01  6.601264954E+00
1.116212050E+01  6.505636215E+00
1.116869612E+01  6.427248001E+00
1.117527174E+01  6.986286163E+00
1.118184737E+01  8.905472755E+00
1.118842299E+01  9.681456566E+00
1.119499861E+01  9.656585693E+00
1.120157424E+01  9.142446518E+00
1.120814986E+01  8.484802246E+00
1.121472548E+01  6.755000591E+00
1.122130111E+01  7.305148125E+00
1.122787673E+01  8.568891525E+00
1.123445235E+01  8.848040581E+00
1.124102797E+01  8.623110771E+00
1.124760360E+01  9.546980858E+00
1.125417922E+01  8.977602959E+00
1.126075484E+01  7.166480541E+00
1.126733047E+01  6.219119549E+00
1.127390609E+01  6.304498672E+00
1.128048171E+01  5.623331547E+00
1.128705734E+01  4.550645828E+00
1.129363296E+01  5.712929726E+00
1.130020858E+01  6.735205650E+00
1.130678421E+01  7.012510777E+00
1.131335983E+01  8.001893044E+00
1.131993545E+01  8.051507950E+00
1.132651108E+01  8.474844933E+00
1.133308670E+01  8.918882370E+00
1.133966232E+01  9.435384750E+00
1.134623795E+01  8.294862747E+00
1.135281357E+01  7.854251862E+00
1.135938919E+01  7.314235210E+00
1.136596482E+01  7.445806980E+00
1.137254044E+01  7.451111317E+00
1.137911606E+01  7.596256733E+00
1.138569169E+01  8.703015327E+00
1.139226731E+01  9.141984940E+00
1.139884293E+01  8.544017792E+00
1.140541856E+01  8.676683426E+00
1.141199418E+01  1.059124374E+01
1.141856980E+01  1.227890015E+01
1.142514543E+01  1.287978172E+01
1.143172105E+01  1.215462208E+01
1.143829667E+01  1.174208450E+01
1.144487230E+01  1.118903732E+01
1.145144792E+01  1.177135181E+01
1.145802354E+01  1.006861305E+01
1.146459917E+01  1.004712486E+01
1.147117479E+01  1.000082874E+01
1.147775041E+01  1.191067886E+01
1.148432604E+01  1.462384224E+01
1.149090166E+01  1.691863823E+01
1.149747728E+01  1.815395927E+01
1.150405291E+01  1.788595772E+01
1.151062853E+01  1.672352409E+01
1.151720415E+01  1.587321186E+01
1.152377978E+01  1.491901207E+01
1.153035540E+01  1.579257488E+01
1.153693102E+01  1.807545471E+01
1.154350665E+01  1.916073227E+01
1.155008227E+01  1.936385345E+01
1.155665789E+01  1.890846443E+01
1.156323351E+01  1.978677177E+01
1.156980914E+01  2.138161087E+01
1.157638476E+01  2.266174889E+01
1.158296038E+01  2.100318718E+01
1.158953601E+01  1.934833145E+01
1.159611163E+01  1.790423775E+01
1.160268725E+01  2.002249336E+01
1.160926288E+01  2.093799019E+01
1.161583850E+01  2.052868462E+01
1.162241412E+01  2.017888260E+01
1.162898975E+01  1.956976318E+01
1.163556537E+01  1.814422989E+01
1.164214099E+01  1.846871758E+01
1.164871662E+01  1.834599113E+01
1.165529224E+01  1.926191902E+01
1.166186786E+01  1.883860016E+01
1.166844349E+01  1.756776810E+01
1.167501911E+01  1.583030605E+01
1.168159473E+01  1.513259411E+01
1.168817036E+01  1.591118336E+01
1.169474598E+01  1.717733192E+01
1.170132160E+01  1.845597076E+01
1.170789723E+01  1.874175262E+01
1.171447285E+01  1.693948936E+01
1.172104847E+01  1.568202019E+01
1.172762410E+01  1.439661217E+01
1.173419972E+01  1.439383602E+01
1.174077534E+01  1.352722836E+01
1.174735097E+01  1.317669296E+01
1.175392659E+01  1.252926159E+01
1.176050221E+01  1.289842701E+01
1.176707784E+01  1.218313408E+01
1.177365346E+01  1.073349571E+01
1.178022908E+01  1.105587387E+01
1.178680471E+01  1.272645473E+01
1.179338033E+01  1.351575947E+01
1.179995595E+01  1.211081028E+01
1.180653158E+01  1.115712643E+01
1.181310720E+01  1.137053871E+01
1.181968282E+01  1.246101665E+01
1.182625845E+01  1.268101025E+01
1.183283407E+01  1.063111305E+01
1.183940969E+01  9.342094421E+00
1.184598532E+01  8.902829170E+00
1.185256094E+01  1.028988457E+01
1.185913656E+01  1.017514229E+01
1.186571219E+01  1.086525059E+01
1.187228781E+01  1.231138515E+01
1.187886343E+01  1.305017471E+01
1.188543906E+01  1.211433983E+01
1.189201468E+01  1.145017529E+01
1.189859030E+01  1.128278637E+01
1.190516592E+01  1.224548054E+01
1.191174155E+01  1.177674294E+01
1.191831717E+01  1.177599525E+01
1.192489279E+01  1.332381248E+01
1.193146842E+01  1.350419044E+01
1.193804404E+01  1.361401272E+01
1.194461966E+01  1.406735516E+01
1.195119529E+01  1.404489326E+01
1.195777091E+01  1.391919899E+01
1.196434653E+01  1.418735790E+01
1.197092216E+01  1.488551903E+01
1.197749778E+01  1.474660683E+01
1.198407340E+01  1.488148117E+01
1.199064903E+01  1.408801079E+01
1.199722465E+01  1.293311119E+01
1.200380027E+01  1.130498695E+01
1.201037590E+01  1.104741001E+01
1.201695152E+01  1.231470013E+01
1.202352714E+01  1.306195927E+01
1.203010277E+01  1.273843098E+01
1.203667839E+01  1.241054726E+01
1.204325401E+01  1.376583576E+01
1.204982964E+01  1.492981243E+01
1.205640526E+01  1.572769833E+01
1.206298088E+01  1.498618412E+01
1.206955651E+01  1.541086483E+01
1.207613213E+01  1.511456203E+01
1.208270775E+01  1.517982674E+01
1.208928338E+01  1.440991116E+01
1.209585900E+01  1.527505970E+01
1.210243462E+01  1.437930679E+01
1.210901025E+01  1.346194077E+01
1.211558587E+01  1.298930073E+01
1.212216149E+01  1.316161060E+01
1.212873712E+01  1.412684917E+01
1.213531274E+01  1.562625790E+01
1.214188836E+01  1.645234489E+01
1.214846399E+01  1.604117393E+01
1.215503961E+01  1.575409889E+01
1.216161523E+01  1.493294430E+01
1.216819086E+01  1.518076420E+01
1.217476648E+01  1.583400917E+01
1.218134210E+01  1.685754776E+01
1.218791773E+01  1.625677299E+01
1.219449335E+01  1.539401245E+01
1.220106897E+01  1.502954197E+01
1.220764460E+01  1.499687862E+01
1.221422022E+01  1.394203663E+01
1.222079584E+01  1.331425476E+01
1.222737146E+01  1.261110878E+01
1.223394709E+01  1.307577991E+01
1.224052271E+01  1.387820435E+01
1.224709833E+01  1.238363361E+01
1.225367396E+01  1.188358402E+01
1.226024958E+01  1.087123394E+01
1.226682520E+01  1.067374420E+01
1.227340083E+01  1.200597095E+01
1.227997645E+01  1.319409657E+01
1.228655207E+01  1.364877605E+01
1.229312770E+01  1.366152573E+01
1.229970332E+01  1.474211884E+01
1.230627894E+01  1.509955215E+01
1.231285457E+01  1.680463409E+01
1.231943019E+01  1.715278244E+01
1.232600581E+01  1.719869804E+01
1.233258144E+01  1.789844322E+01
1.233915706E+01  1.835603142E+01
1.234573268E+01  1.800457573E+01
1.235230831E+01  1.826205826E+01
1.235888393E+01  1.975739479E+01
1.236545955E+01  2.091344452E+01
1.237203518E+01  2.144555473E+01
1.237861080E+01  2.167111778E+01
1.238518642E+01  2.332403374E+01
1.239176205E+01  2.369288826E+01
1.239833767E+01  2.517466736E+01
1.240491329E+01  2.526206398E+01
1.241148892E+01  2.573048210E+01
1.241806454E+01  2.710239792E+01
1.242464016E+01  2.835781097E+01
1.243121579E+01  2.993862915E+01
1.243779141E+01  3.200210190E+01
1.244436703E+01  3.204433441E+01
1.245094266E+01  3.226115799E+01
1.245751828E+01  3.380687714E+01
1.246409390E+01  3.592810440E+01
1.247066953E+01  3.779819870E+01
1.247724515E+01  3.912812042E+01
1.248382077E+01  4.001847458E+01
1.249039640E+01  3.891460037E+01
1.249697202E+01  3.893516922E+01
1.250354764E+01  3.975354767E+01
1.251012327E+01  4.169495392E+01
1.251669889E+01  4.232191467E+01
1.252327451E+01  4.200358963E+01
1.252985014E+01  4.166481400E+01
1.253642576E+01  4.076703262E+01
1.254300138E+01  4.091036606E+01
1.254957700E+01  4.110411453E+01
1.255615263E+01  4.180241013E+01
1.256272825E+01  4.156435013E+01
1.256930387E+01  4.065021133E+01
1.257587950E+01  3.902583313E+01
1.258245512E+01  3.997395706E+01
1.258903074E+01  4.169137955E+01
1.259560637E+01  4.270106125E+01
1.260218199E+01  4.371933746E+01
1.260875761E+01  4.563782120E+01
1.261533324E+01  4.649364090E+01
1.262190886E+01  4.745380020E+01
1.262848448E+01  4.714478302E+01
1.263506011E+01  4.663153839E+01
1.264163573E+01  4.766212845E+01
1.264821135E+01  4.883226395E+01
1.265478698E+01  5.082213211E+01
1.266136260E+01  5.139394379E+01
1.266793822E+01  5.199742126E+01
1.267451385E+01  5.215453720E+01
1.268108947E+01  5.436383438E+01
1.268766509E+01  5.619806671E+01
1.269424072E+01  5.852394104E+01
1.270081634E+01  6.088589096E+01
1.270739196E+01  6.250559616E+01
1.271396759E+01  6.444702148E+01
1.272054321E+01  6.499240112E+01
1.272711883E+01  6.631213379E+01
1.273369446E+01  6.797262573E+01
1.274027008E+01  6.995434570E+01
1.274684570E+01  7.247750854E+01
1.275342133E+01  7.387902069E+01
1.275999695E+01  7.354414368E+01
1.276657257E+01  7.374775696E+01
1.277314820E+01  7.456409454E+01
1.277972382E+01  7.560105896E+01
1.278629944E+01  7.593187714E+01
1.279287507E+01  7.579288483E+01
1.279945069E+01  7.591015625E+01
1.280602631E+01  7.525438690E+01
1.281260194E+01  7.238513947E+01
1.281917756E+01  6.946746063E+01
1.282575318E+01  6.751550293E+01
1.283232881E+01  6.607467651E+01
1.283890443E+01  6.507516479E+01
1.284548005E+01  6.361607742E+01
1.285205568E+01  6.342984009E+01
1.285863130E+01  6.277280807E+01
1.286520692E+01  6.126167679E+01
1.287178255E+01  6.044478989E+01
1.287835817E+01  5.851990128E+01
1.288493379E+01  5.641768646E+01
1.289150941E+01  5.439400482E+01
1.289808504E+01  5.200940704E+01
1.290466066E+01  5.023313904E+01
1.291123628E+01  4.745485306E+01
1.291781191E+01  4.546508408E+01
1.292438753E+01  4.420768738E+01
1.293096315E+01  4.467729568E+01
1.293753878E+01  4.426112366E+01
1.294411440E+01  4.350361633E+01
1.295069002E+01  4.071825027E+01
1.295726565E+01  3.769019318E+01
1.296384127E+01  3.679249954E+01
1.297041689E+01  3.616921616E+01
1.297699252E+01  3.510648727E+01
1.298356814E+01  3.160870743E+01
1.299014376E+01  3.080723190E+01
1.299671939E+01  2.973136520E+01
1.300329501E+01  2.918628502E+01
1.300987063E+01  2.862365532E+01
1.301644626E+01  2.852785683E+01
1.302302188E+01  2.828170013E+01
1.302959750E+01  2.800433159E+01
1.303617313E+01  2.582709503E+01
1.304274875E+01  2.371678925E+01
1.304932437E+01  2.192975807E+01
1.305590000E+01  2.133074760E+01
1.306247562E+01  2.239826775E+01
1.306905124E+01  2.322557640E+01
1.307562687E+01  2.495866394E+01
1.308220249E+01  2.530162239E+01
1.308877811E+01  2.605327606E+01
1.309535374E+01  2.607298470E+01
1.310192936E+01  2.804189491E+01
1.310850498E+01  2.877298164E+01
1.311508061E+01  2.808508110E+01
1.312165623E+01  2.830679131E+01
1.312823185E+01  2.923790550E+01
1.313480748E+01  3.027196121E+01
1.314138310E+01  3.204224396E+01
1.314795872E+01  3.400576782E+01
1.315453435E+01  3.525480270E+01
1.316110997E+01  3.715358734E+01
1.316768559E+01  4.041548157E+01
1.317426122E+01  4.332611465E+01
1.318083684E+01  4.571651840E+01
1.318741246E+01  4.852515411E+01
1.319398809E+01  5.222904968E+01
1.320056371E+01  5.700251007E+01
1.320713933E+01  6.163115311E+01
1.321371495E+01  6.635372925E+01
1.322029058E+01  7.241241455E+01
1.322686620E+01  7.816412354E+01
1.323344182E+01  8.629584503E+01
1.324001745E+01  9.520356750E+01
1.324659307E+01  1.057451706E+02
1.325316869E+01  1.154435959E+02
1.325974432E+01  1.267627029E+02
1.326631994E+01  1.389680939E+02
1.327289556E+01  1.538097382E+02
1.327947119E+01  1.707305298E+02
1.328604681E+01  1.887030945E+02
1.329262243E+01  2.067303314E+02
1.329919806E+01  2.244831696E+02
1.330577368E+01  2.394459381E+02
1.331234930E+01  2.533349609E+02
1.331892493E+01  2.657781372E+02
1.332550055E+01  2.774234619E+02
1.333207617E+01  2.903943787E+02
1.333865180E+01  2.998515930E+02
1.334522742E+01  3.082921448E+02
1.335180304E+01  3.129474792E+02
1.335837867E+01  3.148752136E+02
1.336495429E+01  3.083370361E+02
1.337152991E+01  2.968247070E+02
1.337810554E+01  2.825549316E+02
1.338468116E+01  2.624911804E+02
1.339125678E+01  2.421948853E+02
1.339783241E+01  2.215157166E+02
1.340440803E+01  2.002939606E+02
1.341098365E+01  1.809295502E+02
1.341755928E+01  1.618462982E+02
1.342413490E+01  1.444050446E+02
1.343071052E+01  1.309250946E+02
1.343728615E+01  1.184387131E+02
1.344386177E+01  1.073262329E+02
1.345043739E+01  9.746901703E+01
1.345701302E+01  8.797251129E+01
1.346358864E+01  7.889336395E+01
1.347016426E+01  7.120127869E+01
1.347673989E+01  6.605348969E+01
1.348331551E+01  6.144460297E+01
1.348989113E+01  5.699863434E+01
1.349646676E+01  5.316577530E+01
1.350304238E+01  4.843526077E+01
1.350961800E+01  4.425776672E+01
1.351619363E+01  4.106198502E+01
1.352276925E+01  3.686060333E+01
1.352934487E+01  3.452371979E+01
1.353592050E+01  3.122123528E+01
1.354249612E+01  2.807715797E+01
1.354907174E+01  2.521305466E+01
1.355564736E+01  2.518017006E+01
1.356222299E+01  2.439401627E+01
1.356879861E+01  2.323933601E+01
1.357537423E+01  2.103104973E+01
1.358194986E+01  1.902987862E+01
1.358852548E+01  1.795406532E+01
1.359510110E+01  1.695202065E+01
1.360167673E+01  1.693290710E+01
1.360825235E+01  1.627511597E+01
1.361482797E+01  1.513976288E+01
1.362140360E+01  1.473678303E+01
1.362797922E+01  1.513109875E+01
1.363455484E+01  1.375872231E+01
1.364113047E+01  1.128223228E+01
1.364770609E+01  9.580513000E+00
1.365428171E+01  9.976299286E+00
1.366085734E+01  1.171615505E+01
1.366743296E+01  1.373902607E+01
1.367400858E+01  1.358005047E+01
1.368058421E+01  1.290522861E+01
1.368715983E+01  1.236542320E+01
1.369373545E+01  1.185173321E+01
1.370031108E+01  1.110926151E+01
1.370688670E+01  1.141827011E+01
1.371346232E+01  1.116009331E+01
1.372003795E+01  1.019849110E+01
1.372661357E+01  1.053247833E+01
1.373318919E+01  1.203557968E+01
1.373976482E+01  1.188991737E+01
1.374634044E+01  1.143581676E+01
1.375291606E+01  1.080559731E+01
1.375949169E+01  1.112571812E+01
1.376606731E+01  1.249725056E+01
1.377264293E+01  1.388454533E+01
1.377921856E+01  1.533105850E+01
1.378579418E+01  1.641246986E+01
1.379236980E+01  1.701354599E+01
1.379894543E+01  1.705567169E+01
1.380552105E+01  1.715407944E+01
1.381209667E+01  1.748162270E+01
1.381867230E+01  1.950411987E+01
1.382524792E+01  2.243250847E+01
1.383182354E+01  2.547821617E+01
1.383839917E+01  2.687024307E+01
1.384497479E+01  2.875507355E+01
1.385155041E+01  2.924061966E+01
1.385812604E+01  3.037521553E+01
1.386470166E+01  3.306120682E+01
1.387127728E+01  3.641479874E+01
1.387785290E+01  3.969575882E+01
1.388442853E+01  4.318434906E+01
1.389100415E+01  4.444502258E+01
1.389757977E+01  4.467308426E+01
1.390415540E+01  4.536462402E+01
1.391073102E+01  4.691562653E+01
1.391730664E+01  4.776309967E+01
1.392388227E+01  4.999491882E+01
1.393045789E+01  5.194262314E+01
1.393703351E+01  5.335668564E+01
1.394360914E+01  5.506570435E+01
1.395018476E+01  5.551205444E+01
1.395676038E+01  5.502238083E+01
1.396333601E+01  5.549412537E+01
1.396991163E+01  5.620315933E+01
1.397648725E+01  5.736918259E+01
1.398306288E+01  5.675536728E+01
1.398963850E+01  5.630847168E+01
1.399621412E+01  5.610269547E+01
1.400278975E+01  5.565462494E+01
1.400936537E+01  5.281579971E+01
1.401594099E+01  5.118141556E+01
1.402251662E+01  4.915770340E+01
1.402909224E+01  4.722023010E+01
1.403566786E+01  4.547347260E+01
1.404224349E+01  4.418058777E+01
1.404881911E+01  4.270288849E+01
1.405539473E+01  4.174347687E+01
1.406197036E+01  4.105088043E+01
1.406854598E+01  4.092487717E+01
1.407512160E+01  4.099094009E+01
1.408169723E+01  4.047366333E+01
1.408827285E+01  3.911619568E+01
1.409484847E+01  3.748053741E+01
1.410142410E+01  3.488649750E+01
1.410799972E+01  3.197663689E+01
1.411457534E+01  3.026120377E+01
1.412115097E+01  2.993940735E+01
1.412772659E+01  2.867822647E+01
1.413430221E+01  2.812267494E+01
1.414087784E+01  2.699979591E+01
1.414745346E+01  2.524024963E+01
1.415402908E+01  2.470633316E+01
1.416060471E+01  2.320908165E+01
1.416718033E+01  2.241206551E+01
1.417375595E+01  2.231430435E+01
1.418033158E+01  2.260330009E+01
1.418690720E+01  2.257202339E+01
1.419348282E+01  2.258961105E+01
1.420005844E+01  2.196319962E+01
1.420663407E+01  2.189933014E+01
1.421320969E+01  2.091851425E+01
1.421978531E+01  2.006763077E+01
1.422636094E+01  1.929346275E+01
1.423293656E+01  2.058771133E+01
1.423951218E+01  2.184930611E+01
1.424608781E+01  2.233703995E+01
1.425266343E+01  2.126722717E+01
1.425923905E+01  2.024631691E+01
1.426581468E+01  1.946327591E+01
1.427239030E+01  1.836878967E+01
1.427896592E+01  1.863229752E+01
1.428554155E+01  1.880507088E+01
1.429211717E+01  1.920742035E+01
1.429869279E+01  1.947704315E+01
1.430526842E+01  1.980974007E+01
1.431184404E+01  1.870160484E+01
1.431841966E+01  1.798173332E+01
1.432499529E+01  1.709250832E+01
1.433157091E+01  1.603929710E+01
1.433814653E+01  1.663556862E+01
1.434472216E+01  1.771676636E+01
1.435129778E+01  1.814225769E+01
1.435787340E+01  1.772111893E+01
1.436444903E+01  1.798654366E+01
1.437102465E+01  1.800638962E+01
1.437760027E+01  1.894959259E+01
1.438417590E+01  1.916965866E+01
1.439075152E+01  1.889118195E+01
1.439732714E+01  1.800868034E+01
1.440390277E+01  1.823259163E+01
1.441047839E+01  1.802383804E+01
1.441705401E+01  1.819099617E+01
1.442362964E+01  1.810319519E+01
1.443020526E+01  1.707535934E+01
1.443678088E+01  1.561528587E+01
1.444335651E+01  1.457159424E+01
1.444993213E+01  1.358684540E+01
1.445650775E+01  1.345741367E+01
1.446308338E+01  1.390105724E+01
1.446965900E+01  1.420340729E+01
1.447623462E+01  1.410126686E+01
1.448281025E+01  1.531581688E+01
1.448938587E+01  1.541100883E+01
1.449596149E+01  1.671447182E+01
1.450253712E+01  1.680383110E+01
1.450911274E+01  1.571911907E+01
1.451568836E+01  1.470153999E+01
1.452226399E+01  1.546348953E+01
1.452883961E+01  1.619539642E+01
1.453541523E+01  1.635281944E+01
1.454199085E+01  1.435666084E+01
1.454856648E+01  1.478699589E+01
1.455514210E+01  1.567556572E+01
1.456171772E+01  1.675772285E+01
1.456829335E+01  1.599831963E+01
1.457486897E+01  1.536073685E+01
1.458144459E+01  1.447388935E+01
1.458802022E+01  1.388710117E+01
1.459459584E+01  1.271464062E+01
1.460117146E+01  1.257907677E+01
1.460774709E+01  1.216352654E+01
1.461432271E+01  1.166673279E+01
1.462089833E+01  1.292074108E+01
1.462747396E+01  1.321609211E+01
1.463404958E+01  1.366315174E+01
1.464062520E+01  1.323361588E+01
1.464720083E+01  1.253394508E+01
1.465377645E+01  1.161054230E+01
1.466035207E+01  1.078129292E+01
1.466692770E+01  1.053791428E+01
1.467350332E+01  1.091704178E+01
1.468007894E+01  1.128099632E+01
1.468665457E+01  1.212979317E+01
1.469323019E+01  1.284869957E+01
1.469980581E+01  1.345823860E+01
1.470638144E+01  1.426360035E+01
1.471295706E+01  1.482192421E+01
1.471953268E+01  1.578361416E+01
1.472610831E+01  1.611547852E+01
1.473268393E+01  1.634242821E+01
1.473925955E+01  1.691271400E+01
1.474583518E+01  1.712517548E+01
1.475241080E+01  1.788216019E+01
1.475898642E+01  1.826521873E+01
1.476556205E+01  1.765619278E+01
1.477213767E+01  1.617861938E+01
1.477871329E+01  1.499070740E+01
1.478528892E+01  1.471648121E+01
1.479186454E+01  1.505613804E+01
1.479844016E+01  1.577042103E+01
1.480501579E+01  1.682612801E+01
1.481159141E+01  1.781798363E+01
1.481816703E+01  1.809462357E+01
1.482474266E+01  1.728006554E+01
1.483131828E+01  1.564530945E+01
1.483789390E+01  1.516642475E+01
1.484446953E+01  1.479653645E+01
1.485104515E+01  1.425048828E+01
1.485762077E+01  1.344575977E+01
1.486419639E+01  1.306106186E+01
1.487077202E+01  1.238496876E+01
1.487734764E+01  1.152734661E+01
1.488392326E+01  1.117569637E+01
1.489049889E+01  1.215277672E+01
1.489707451E+01  1.289902020E+01
1.490365013E+01  1.378357410E+01
1.491022576E+01  1.147343731E+01
1.491680138E+01  9.721548080E+00
1.492337700E+01  8.369712830E+00
1.492995263E+01  9.582006454E+00
1.493652825E+01  1.135306931E+01
1.494310387E+01  1.215020275E+01
1.494967950E+01  1.210379314E+01
1.495625512E+01  1.143602657E+01
1.496283074E+01  1.161811447E+01
1.496940637E+01  1.216716766E+01
1.497598199E+01  1.289033794E+01
1.498255761E+01  1.400786400E+01
1.498913324E+01  1.483959579E+01
1.499570886E+01  1.497784615E+01
1.500228448E+01  1.347440052E+01
1.500886011E+01  1.315594864E+01
1.501543573E+01  1.111138916E+01
1.502201135E+01  1.036321354E+01
1.502858698E+01  1.112385654E+01
1.503516260E+01  1.005546093E+01
1.504173822E+01  9.640480995E+00
1.504831385E+01  7.724166870E+00
1.505488947E+01  6.808504105E+00
1.506146509E+01  7.529269695E+00
1.506804072E+01  7.499289989E+00
1.507461634E+01  7.744966030E+00
1.508119196E+01  9.195041656E+00
1.508776759E+01  1.201605415E+01
1.509434321E+01  1.245901108E+01
1.510091883E+01  1.360402298E+01
1.510749446E+01  1.223187923E+01
1.511407008E+01  9.782064438E+00
1.512064570E+01  9.174528122E+00
1.512722133E+01  8.524530411E+00
1.513379695E+01  8.519597054E+00
1.514037257E+01  8.870690346E+00
1.514694820E+01  9.128614426E+00
1.515352382E+01  1.004631996E+01
1.516009944E+01  9.865525246E+00
1.516667507E+01  9.053536415E+00
1.517325069E+01  8.542985916E+00
1.517982631E+01  8.488676071E+00
1.518640194E+01  9.070309639E+00
1.519297756E+01  9.709773064E+00
1.519955318E+01  9.915382385E+00
1.520612880E+01  1.066468620E+01
1.521270443E+01  1.057830238E+01
1.521928005E+01  9.813955307E+00
1.522585567E+01  9.606516838E+00
1.523243130E+01  9.373966217E+00
1.523900692E+01  9.609963417E+00
1.524558254E+01  1.018512344E+01
1.525215817E+01  1.234750175E+01
1.525873379E+01  1.362249660E+01
1.526530941E+01  1.405748081E+01
1.527188504E+01  1.404357815E+01
1.527846066E+01  1.447435379E+01
1.528503628E+01  1.379268837E+01
1.529161191E+01  1.227154446E+01
1.529818753E+01  1.103202820E+01
1.530476315E+01  1.110198498E+01
1.531133878E+01  1.342576790E+01
1.531791440E+01  1.566061974E+01
1.532449002E+01  1.727921295E+01
1.533106565E+01  1.838655090E+01
1.533764127E+01  1.876829720E+01
1.534421689E+01  1.818863678E+01
1.535079252E+01  1.821057892E+01
1.535736814E+01  1.917692566E+01
1.536394376E+01  1.945635605E+01
1.537051939E+01  1.981842995E+01
1.537709501E+01  2.087938690E+01
1.538367063E+01  2.070127296E+01
1.539024626E+01  2.039105415E+01
1.539682188E+01  2.173440742E+01
1.540339750E+01  2.286173820E+01
1.540997313E+01  2.402015495E+01
1.541654875E+01  2.542062950E+01
1.542312437E+01  2.748165703E+01
1.542970000E+01  2.969790077E+01
1.543627562E+01  3.008844566E+01
1.544285124E+01  2.999756432E+01
1.544942687E+01  3.135351562E+01
1.545600249E+01  3.307040405E+01
1.546257811E+01  3.639044571E+01
1.546915374E+01  4.017403412E+01
1.547572936E+01  4.337871933E+01
1.548230498E+01  4.534975052E+01
1.548888061E+01  4.790259171E+01
1.549545623E+01  5.094351959E+01
1.550203185E+01  5.630850601E+01
1.550860748E+01  6.169337463E+01
1.551518310E+01  6.895997620E+01
1.552175872E+01  7.520011902E+01
1.552833434E+01  8.177369690E+01
1.553490997E+01  8.827545166E+01
1.554148559E+01  9.544026947E+01
1.554806121E+01  1.042750015E+02
1.555463684E+01  1.142303467E+02
1.556121246E+01  1.278746719E+02
1.556778808E+01  1.430707855E+02
1.557436371E+01  1.592684021E+02
1.558093933E+01  1.757482910E+02
1.558751495E+01  1.948986511E+02
1.559409058E+01  2.159884949E+02
1.560066620E+01  2.397961884E+02
1.560724182E+01  2.628446655E+02
1.561381745E+01  2.863438721E+02
1.562039307E+01  3.115628662E+02
1.562696869E+01  3.362282104E+02
1.563354432E+01  3.624780884E+02
1.564011994E+01  3.857909851E+02
1.564669556E+01  4.070439148E+02
1.565327119E+01  4.236630859E+02
1.565984681E+01  4.379360962E+02
1.566642243E+01  4.483493347E+02
1.567299806E+01  4.489193420E+02
1.567957368E+01  4.375514221E+02
1.568614930E+01  4.155458374E+02
1.569272493E+01  3.935974731E+02
1.569930055E+01  3.635466309E+02
1.570587617E+01  3.376681824E+02
1.571245180E+01  3.108904419E+02
1.571902742E+01  2.848700867E+02
1.572560304E+01  2.590002136E+02
1.573217867E+01  2.380777435E+02
1.573875429E+01  2.207706299E+02
1.574532991E+01  2.066906891E+02
1.575190554E+01  1.944087830E+02
1.575848116E+01  1.818902283E+02
1.576505678E+01  1.695759735E+02
1.577163241E+01  1.577067719E+02
1.577820803E+01  1.470419159E+02
1.578478365E+01  1.362157288E+02
1.579135928E+01  1.267301483E+02
1.579793490E+01  1.192473526E+02
1.580451052E+01  1.137316971E+02
1.581108615E+01  1.058546066E+02
1.581766177E+01  9.954726410E+01
1.582423739E+01  9.352111816E+01
1.583081302E+01  8.939290619E+01
1.583738864E+01  8.582962799E+01
1.584396426E+01  8.244168091E+01
1.585053988E+01  7.777156067E+01
1.585711551E+01  7.218257904E+01
1.586369113E+01  6.692475128E+01
1.587026675E+01  6.357818604E+01
1.587684238E+01  6.103157043E+01
1.588341800E+01  5.793677902E+01
1.588999362E+01  5.638757706E+01
1.589656925E+01  5.493574142E+01
1.590314487E+01  5.356516266E+01
1.590972049E+01  5.137205124E+01
1.591629612E+01  4.873921967E+01
1.592287174E+01  4.673796463E+01
1.592944736E+01  4.552258682E+01
1.593602299E+01  4.477911758E+01
1.594259861E+01  4.346215057E+01
1.594917423E+01  4.117422104E+01
1.595574986E+01  4.007352066E+01
1.596232548E+01  3.897303772E+01
1.596890110E+01  3.770185471E+01
1.597547673E+01  3.742354202E+01
1.598205235E+01  3.746865082E+01
1.598862797E+01  3.703003693E+01
1.599520360E+01  3.605886459E+01
1.600177922E+01  3.578264618E+01
1.600835484E+01  3.673458099E+01
1.601493047E+01  3.580136108E+01
1.602150609E+01  3.422223663E+01
1.602808171E+01  3.178380775E+01
1.603465734E+01  3.030637550E+01
1.604123296E+01  2.743250275E+01
1.604780858E+01  2.439606285E+01
1.605438421E+01  2.235817528E+01
1.606095983E+01  2.222996521E+01
1.606753545E+01  2.206366730E+01
1.607411108E+01  2.092421913E+01
1.608068670E+01  2.196200371E+01
1.608726232E+01  2.372487259E+01
1.609383795E+01  2.422209930E+01
1.610041357E+01  2.446052361E+01
1.610698919E+01  2.385030556E+01
1.611356482E+01  2.232406807E+01
1.612014044E+01  2.184275627E+01
1.612671606E+01  2.108558273E+01
1.613329169E+01  2.019904137E+01
1.613986731E+01  1.947807121E+01
1.614644293E+01  2.023763084E+01
1.615301856E+01  1.910810661E+01
1.615959418E+01  1.958610344E+01
1.616616980E+01  2.016089821E+01
1.617274543E+01  2.129296303E+01
1.617932105E+01  2.298915672E+01
1.618589667E+01  2.397411156E+01
1.619247229E+01  2.482402611E+01
1.619904792E+01  2.407456398E+01
1.620562354E+01  2.422037888E+01
1.621219916E+01  2.578297997E+01
1.621877479E+01  2.896306992E+01
1.622535041E+01  3.060588455E+01
1.623192603E+01  3.287013626E+01
1.623850166E+01  3.494626617E+01
1.624507728E+01  3.815558624E+01
1.625165290E+01  4.134771729E+01
1.625822853E+01  4.407393646E+01
1.626480415E+01  4.559499741E+01
1.627137977E+01  4.751490784E+01
1.627795540E+01  4.944011688E+01
1.628453102E+01  5.147609711E+01
1.629110664E+01  5.578495026E+01
1.629768227E+01  6.166452789E+01
1.630425789E+01  6.681208038E+01
1.631083351E+01  7.355915070E+01
1.631740914E+01  8.000777435E+01
1.632398476E+01  8.615255737E+01
1.633056038E+01  9.230257416E+01
1.633713601E+01  9.706033325E+01
1.634371163E+01  1.000693817E+02
1.635028725E+01  1.005435562E+02
1.635686288E+01  1.009164276E+02
1.636343850E+01  1.010512543E+02
1.637001412E+01  1.012668533E+02
1.637658975E+01  1.004826431E+02
1.638316537E+01  9.981480408E+01
1.638974099E+01  9.971155548E+01
1.639631662E+01  9.756789398E+01
1.640289224E+01  9.395605469E+01
1.640946786E+01  8.856742859E+01
1.641604349E+01  8.340200043E+01
1.642261911E+01  7.890016937E+01
1.642919473E+01  7.473234558E+01
1.643577036E+01  7.113043976E+01
1.644234598E+01  6.698653412E+01
1.644892160E+01  6.308577728E+01
1.645549723E+01  6.106292725E+01
1.646207285E+01  5.895412064E+01
1.646864847E+01  5.536872864E+01
1.647522410E+01  5.201573944E+01
1.648179972E+01  4.996010590E+01
1.648837534E+01  4.919987869E+01
1.649495097E+01  4.884005737E+01
1.650152659E+01  4.818582535E+01
1.650810221E+01  4.715176010E+01
1.651467783E+01  4.423786926E+01
1.652125346E+01  4.274398804E+01
1.652782908E+01  4.159445190E+01
1.653440470E+01  3.925168991E+01
1.654098033E+01  3.744960785E+01
1.654755595E+01  3.683081055E+01
1.655413157E+01  3.527081299E+01
1.656070720E+01  3.390684509E+01
1.656728282E+01  3.383316803E+01
1.657385844E+01  3.410791397E+01
1.658043407E+01  3.376186371E+01
1.658700969E+01  3.339659882E+01
1.659358531E+01  3.388420868E+01
1.660016094E+01  3.354013443E+01
1.660673656E+01  3.360609055E+01
1.661331218E+01  3.435747528E+01
1.661988781E+01  3.571812057E+01
1.662646343E+01  3.767436218E+01
1.663303905E+01  3.867639160E+01
1.663961468E+01  3.898006439E+01
1.664619030E+01  3.844377518E+01
1.665276592E+01  3.921691895E+01
1.665934155E+01  4.009587097E+01
1.666591717E+01  4.224126053E+01
1.667249279E+01  4.331370544E+01
1.667906842E+01  4.373652649E+01
1.668564404E+01  4.322307587E+01
1.669221966E+01  4.418640900E+01
1.669879529E+01  4.477542114E+01
1.670537091E+01  4.479574203E+01
1.671194653E+01  4.425222778E+01
1.671852216E+01  4.399444580E+01
1.672509778E+01  4.511415863E+01
1.673167340E+01  4.482129669E+01
1.673824903E+01  4.452549362E+01
1.674482465E+01  4.428189087E+01
1.675140027E+01  4.404260635E+01
1.675797590E+01  4.390721893E+01
1.676455152E+01  4.504611206E+01
1.677112714E+01  4.553592300E+01
1.677770277E+01  4.573844147E+01
1.678427839E+01  4.525863266E+01
1.679085401E+01  4.427275085E+01
1.679742964E+01  4.458693695E+01
1.680400526E+01  4.548585510E+01
1.681058088E+01  4.610670090E+01
1.681715651E+01  4.627321243E+01
1.682373213E+01  4.644876480E+01
1.683030775E+01  4.876081467E+01
1.683688338E+01  5.107899857E+01
1.684345900E+01  5.258008957E+01
1.685003462E+01  5.281781769E+01
1.685661024E+01  5.231026840E+01
1.686318587E+01  5.161703491E+01
1.686976149E+01  5.178453064E+01
1.687633711E+01  5.331424332E+01
1.688291274E+01  5.452993393E+01
1.688948836E+01  5.588085175E+01
1.689606398E+01  5.567512512E+01
1.690263961E+01  5.544012833E+01
1.690921523E+01  5.586241150E+01
1.691579085E+01  5.598448181E+01
1.692236648E+01  5.752950287E+01
1.692894210E+01  5.848675537E+01
1.693551772E+01  5.911211777E+01
1.694209335E+01  5.935774994E+01
1.694866897E+01  6.037649918E+01
1.695524459E+01  6.039981461E+01
1.696182022E+01  5.936128998E+01
1.696839584E+01  5.782049561E+01
1.697497146E+01  5.606307220E+01
1.698154709E+01  5.482874680E+01
1.698812271E+01  5.461751175E+01
1.699469833E+01  5.477309418E+01
1.700127396E+01  5.554449463E+01
1.700784958E+01  5.586869049E+01
1.701442520E+01  5.666508484E+01
1.702100083E+01  5.575932693E+01
1.702757645E+01  5.486329269E+01
1.703415207E+01  5.379724884E+01
1.704072770E+01  5.173254395E+01
1.704730332E+01  5.050409317E+01
1.705387894E+01  4.981692505E+01
1.706045457E+01  4.986777496E+01
1.706703019E+01  4.790512848E+01
1.707360581E+01  4.554467010E+01
1.708018144E+01  4.363888931E+01
1.708675706E+01  4.453980255E+01
1.709333268E+01  4.486894989E+01
1.709990831E+01  4.566780472E+01
1.710648393E+01  4.536504364E+01
1.711305955E+01  4.375507736E+01
1.711963518E+01  4.120702744E+01
1.712621080E+01  3.967594910E+01
1.713278642E+01  3.831857681E+01
1.713936205E+01  3.676868820E+01
1.714593767E+01  3.532852936E+01
1.715251329E+01  3.393267822E+01
1.715908892E+01  3.334530258E+01
1.716566454E+01  3.264014816E+01
1.717224016E+01  3.183139229E+01
1.717881578E+01  3.159191322E+01
1.718539141E+01  3.182017517E+01
1.719196703E+01  3.278573990E+01
1.719854265E+01  3.381676102E+01
1.720511828E+01  3.408759689E+01
1.721169390E+01  3.289173508E+01
1.721826952E+01  3.132980156E+01
1.722484515E+01  3.034470177E+01
1.723142077E+01  2.916205788E+01
1.723799639E+01  2.832731438E+01
1.724457202E+01  2.798893738E+01
1.725114764E+01  2.834861755E+01
1.725772326E+01  2.854358482E+01
1.726429889E+01  2.943176842E+01
1.727087451E+01  3.031006050E+01
1.727745013E+01  2.990209961E+01
1.728402576E+01  2.985095978E+01
1.729060138E+01  2.915224075E+01
1.729717700E+01  2.745437241E+01
1.730375263E+01  2.553028870E+01
1.731032825E+01  2.369783974E+01
1.731690387E+01  2.292330551E+01
1.732347950E+01  2.294591522E+01
1.733005512E+01  2.241552734E+01
1.733663074E+01  2.202936935E+01
1.734320637E+01  2.255057335E+01
1.734978199E+01  2.372518539E+01
1.735635761E+01  2.465080452E+01
1.736293324E+01  2.581614685E+01
1.736950886E+01  2.624019432E+01
1.737608448E+01  2.662601852E+01
1.738266011E+01  2.611906815E+01
1.738923573E+01  2.559184456E+01
1.739581135E+01  2.520347786E+01
1.740238698E+01  2.555840874E+01
1.740896260E+01  2.612680435E+01
1.741553822E+01  2.585442734E+01
1.742211385E+01  2.545510674E+01
1.742868947E+01  2.479454041E+01
1.743526509E+01  2.527553368E+01
1.744184072E+01  2.413196182E+01
1.744841634E+01  2.310258293E+01
1.745499196E+01  2.215517235E+01
1.746156759E+01  2.231219673E+01
1.746814321E+01  2.231634903E+01
1.747471883E+01  2.197282219E+01
1.748129446E+01  2.162051392E+01
1.748787008E+01  2.192889023E+01
1.749444570E+01  2.265580559E+01
1.750102132E+01  2.429934883E+01
1.750759695E+01  2.509492111E+01
1.751417257E+01  2.557528496E+01
1.752074819E+01  2.451295471E+01
1.752732382E+01  2.345632362E+01
1.753389944E+01  2.233952332E+01
1.754047506E+01  2.225098419E+01
1.754705069E+01  2.314925194E+01
1.755362631E+01  2.375848770E+01
1.756020193E+01  2.374474907E+01
1.756677756E+01  2.364029121E+01
1.757335318E+01  2.399446106E+01
1.757992880E+01  2.348110199E+01
1.758650443E+01  2.312463951E+01
1.759308005E+01  2.184060097E+01
1.759965567E+01  2.141511726E+01
1.760623130E+01  2.110842133E+01
1.761280692E+01  2.210994339E+01
1.761938254E+01  2.297043228E+01
1.762595817E+01  2.482509995E+01
1.763253379E+01  2.568659210E+01
1.763910941E+01  2.529899597E+01
1.764568504E+01  2.536683464E+01
1.765226066E+01  2.575576782E+01
1.765883628E+01  2.683388901E+01
1.766541191E+01  2.779839134E+01
1.767198753E+01  2.812917900E+01
1.767856315E+01  2.764942169E+01
1.768513878E+01  2.797379303E+01
1.769171440E+01  2.785906219E+01
1.769829002E+01  2.739256668E+01
1.770486565E+01  2.730666733E+01
1.771144127E+01  2.814379501E+01
1.771801689E+01  2.951279449E+01
1.772459252E+01  2.895220184E+01
1.773116814E+01  2.822273827E+01
1.773774376E+01  2.968278694E+01
1.774431939E+01  3.057843590E+01
1.775089501E+01  3.117141342E+01
1.775747063E+01  2.992755890E+01
1.776404626E+01  2.887131119E+01
1.777062188E+01  2.829030991E+01
1.777719750E+01  2.821634102E+01
1.778377313E+01  2.874271774E+01
1.779034875E+01  2.936023140E+01
1.779692437E+01  2.973252106E+01
1.780350000E+01  3.019266701E+01
1.781007562E+01  3.017677879E+01
1.781665124E+01  2.998376274E+01
1.782322687E+01  2.990031242E+01
1.782980249E+01  3.093138504E+01
1.783637811E+01  3.248134232E+01
1.784295373E+01  3.282807541E+01
1.784952936E+01  3.248775101E+01
1.785610498E+01  3.049508667E+01
1.786268060E+01  2.896827126E+01
1.786925623E+01  2.727939987E+01
1.787583185E+01  2.604518127E+01
1.788240747E+01  2.564500427E+01
1.788898310E+01  2.723705292E+01
1.789555872E+01  2.769434357E+01
1.790213434E+01  2.823314095E+01
1.790870997E+01  2.891003036E+01
1.791528559E+01  2.978744125E+01
1.792186121E+01  3.030914307E+01
1.792843684E+01  2.975532532E+01
1.793501246E+01  2.870792198E+01
1.794158808E+01  2.789583969E+01
1.794816371E+01  2.743372154E+01
1.795473933E+01  2.850457191E+01
1.796131495E+01  3.018445969E+01
1.796789058E+01  3.075991058E+01
1.797446620E+01  3.150817680E+01
1.798104182E+01  3.223288727E+01
1.798761745E+01  3.323913956E+01
1.799419307E+01  3.434524155E+01
1.800076869E+01  3.475426865E+01
1.800734432E+01  3.585680771E+01
1.801391994E+01  3.713917923E+01
1.802049556E+01  3.806573486E+01
1.802707119E+01  3.776441956E+01
1.803364681E+01  3.709904099E+01
1.804022243E+01  3.551886368E+01
1.804679806E+01  3.549953461E+01
1.805337368E+01  3.609240341E+01
1.805994930E+01  3.657685471E+01
1.806652493E+01  3.655015182E+01
1.807310055E+01  3.551483536E+01
1.807967617E+01  3.486213303E+01
1.808625180E+01  3.387681580E+01
1.809282742E+01  3.299161148E+01
1.809940304E+01  3.333161545E+01
1.810597867E+01  3.434711838E+01
1.811255429E+01  3.415197372E+01
1.811912991E+01  3.299673843E+01
1.812570554E+01  3.189855194E+01
1.813228116E+01  3.153763008E+01
1.813885678E+01  3.186564636E+01
1.814543241E+01  3.282448959E+01
1.815200803E+01  3.370710754E+01
1.815858365E+01  3.487331390E+01
1.816515927E+01  3.511307907E+01
1.817173490E+01  3.510942459E+01
1.817831052E+01  3.421038818E+01
1.818488614E+01  3.350032425E+01
1.819146177E+01  3.361972046E+01
1.819803739E+01  3.346101379E+01
1.820461301E+01  3.330871964E+01
1.821118864E+01  3.253817749E+01
1.821776426E+01  3.221856689E+01
1.822433988E+01  3.090198898E+01
1.823091551E+01  2.995451736E+01
1.823749113E+01  2.986088753E+01
1.824406675E+01  2.945351219E+01
1.825064238E+01  2.967322159E+01
1.825721800E+01  2.992082405E+01
1.826379362E+01  2.945946312E+01
1.827036925E+01  2.909966660E+01
1.827694487E+01  2.864857674E+01
1.828352049E+01  2.744167519E+01
1.829009612E+01  2.605178261E+01
1.829667174E+01  2.483298874E+01
1.830324736E+01  2.548266602E+01
1.830982299E+01  2.689449883E+01
1.831639861E+01  2.733083725E+01
1.832297423E+01  2.793245697E+01
1.832954986E+01  2.891631889E+01
1.833612548E+01  2.976402473E+01
1.834270110E+01  3.043325043E+01
1.834927673E+01  3.085578156E+01
1.835585235E+01  2.974024582E+01
1.836242797E+01  2.901106834E+01
1.836900360E+01  2.894128418E+01
1.837557922E+01  2.721893692E+01
1.838215484E+01  2.653545570E+01
1.838873047E+01  2.679464340E+01
1.839530609E+01  2.621227264E+01
1.840188171E+01  2.642009926E+01
1.840845734E+01  2.662943459E+01
1.841503296E+01  2.640555954E+01
1.842160858E+01  2.715992165E+01
1.842818421E+01  2.686888123E+01
1.843475983E+01  2.749413490E+01
1.844133545E+01  2.792558289E+01
1.844791108E+01  2.745742226E+01
1.845448670E+01  2.735992050E+01
1.846106232E+01  2.806839371E+01
1.846763795E+01  2.801915359E+01
1.847421357E+01  2.748398018E+01
1.848078919E+01  2.611212730E+01
1.848736482E+01  2.468764687E+01
1.849394044E+01  2.475195694E+01
1.850051606E+01  2.483138275E+01
1.850709168E+01  2.614028549E+01
1.851366731E+01  2.598340225E+01
1.852024293E+01  2.534227562E+01
1.852681855E+01  2.357056236E+01
1.853339418E+01  2.371970558E+01
1.853996980E+01  2.382312202E+01
1.854654542E+01  2.351337242E+01
1.855312105E+01  2.228875160E+01
1.855969667E+01  2.206162834E+01
1.856627229E+01  2.242844963E+01
1.857284792E+01  2.296757698E+01
1.857942354E+01  2.321878242E+01
1.858599916E+01  2.379845047E+01
1.859257479E+01  2.371013832E+01
1.859915041E+01  2.291975021E+01
1.860572603E+01  2.244635391E+01
1.861230166E+01  2.269177055E+01
1.861887728E+01  2.252406311E+01
1.862545290E+01  2.260615158E+01
1.863202853E+01  2.249005890E+01
1.863860415E+01  2.331613350E+01
1.864517977E+01  2.302105904E+01
1.865175540E+01  2.286228752E+01
1.865833102E+01  2.282429695E+01
1.866490664E+01  2.323628426E+01
1.867148227E+01  2.369600487E+01
1.867805789E+01  2.343014145E+01
1.868463351E+01  2.435828400E+01
1.869120914E+01  2.592302322E+01
1.869778476E+01  2.637121582E+01
1.870436038E+01  2.691316605E+01
1.871093601E+01  2.792479324E+01
1.871751163E+01  2.891149902E+01
1.872408725E+01  2.807555008E+01
1.873066288E+01  2.773990250E+01
1.873723850E+01  2.753619194E+01
1.874381412E+01  2.708732605E+01
1.875038975E+01  2.703433800E+01
1.875696537E+01  2.767015076E+01
1.876354099E+01  2.885898972E+01
1.877011662E+01  2.950804520E+01
1.877669224E+01  3.038189888E+01
1.878326786E+01  3.118404007E+01
1.878984349E+01  3.234395981E+01
1.879641911E+01  3.320365143E+01
1.880299473E+01  3.336866760E+01
1.880957036E+01  3.432334900E+01
1.881614598E+01  3.445912552E+01
1.882272160E+01  3.511799622E+01
1.882929722E+01  3.683762741E+01
1.883587285E+01  3.875422287E+01
1.884244847E+01  4.249314880E+01
1.884902409E+01  4.487160492E+01
1.885559972E+01  4.857786179E+01
1.886217534E+01  5.127284241E+01
1.886875096E+01  5.336946869E+01
1.887532659E+01  5.644186783E+01
1.888190221E+01  5.856379700E+01
1.888847783E+01  5.971735001E+01
1.889505346E+01  6.152396393E+01
1.890162908E+01  6.281275940E+01
1.890820470E+01  6.389500046E+01
1.891478033E+01  6.523446655E+01
1.892135595E+01  6.572628021E+01
1.892793157E+01  6.530963898E+01
1.893450720E+01  6.345413208E+01
1.894108282E+01  6.001564026E+01
1.894765844E+01  5.643257141E+01
1.895423407E+01  5.189279175E+01
1.896080969E+01  4.818708801E+01
1.896738531E+01  4.494836044E+01
1.897396094E+01  4.231758118E+01
1.898053656E+01  3.833927917E+01
1.898711218E+01  3.481256866E+01
1.899368781E+01  3.078480148E+01
1.900026343E+01  2.767413330E+01
1.900683905E+01  2.597365379E+01
1.901341468E+01  2.483493996E+01
1.901999030E+01  2.388746262E+01
1.902656592E+01  2.285243988E+01
1.903314155E+01  2.098337364E+01
1.903971717E+01  1.873265648E+01
1.904629279E+01  1.748214722E+01
1.905286842E+01  1.662725067E+01
1.905944404E+01  1.516683197E+01
1.906601966E+01  1.364370632E+01
1.907259529E+01  1.152209091E+01
1.907917091E+01  9.227131844E+00
1.908574653E+01  7.976386070E+00
1.909232216E+01  6.279706001E+00
1.909889778E+01  5.132454395E+00
1.910547340E+01  5.417177200E+00
1.911204903E+01  5.138261795E+00
1.911862465E+01  4.011084557E+00
1.912520027E+01  3.267959356E+00
1.913177590E+01  1.987071753E+00
1.913835152E+01  2.201730490E+00
1.914492714E+01  2.862228394E+00
1.915150276E+01  3.757258892E+00
1.915807839E+01  3.443724871E+00
1.916465401E+01  2.912974119E+00
1.917122963E+01  2.095987320E+00
1.917780526E+01  3.886601329E-01
1.918438088E+01  -4.737503231E-01
1.919095650E+01  -2.687343657E-01
1.919753213E+01  6.196223497E-01
1.920410775E+01  1.680918097E+00
1.921068337E+01  1.733180165E+00
1.921725900E+01  8.622803688E-01
1.922383462E+01  -3.747177124E-01
1.923041024E+01  -7.742917538E-01
1.923698587E+01  -1.864359528E-01
1.924356149E+01  9.477567077E-01
1.925013711E+01  1.671658874E+00
1.925671274E+01  2.018332720E+00
1.926328836E+01  1.037347674E+00
1.926986398E+01  -3.309659362E-01
1.927643961E+01  -6.059197783E-01
1.928301523E+01  -9.097325802E-01
1.928959085E+01  1.492051929E-01
1.929616648E+01  -1.795854717E-01
1.930274210E+01  3.994331360E-01
1.930931772E+01  8.247492313E-01
1.931589335E+01  9.655286074E-01
1.932246897E+01  -3.355459496E-02
1.932904459E+01  -6.550791264E-01
1.933562022E+01  -3.360636234E-01
1.934219584E+01  1.416735947E-01
1.934877146E+01  -2.170376927E-01
1.935534709E+01  -7.318899632E-01
1.936192271E+01  -7.372534275E-01
1.936849833E+01  -6.616514176E-02
1.937507396E+01  1.127411127E+00
1.938164958E+01  1.296905756E+00
1.938822520E+01  -2.416014671E-02
1.939480083E+01  -4.107262492E-01
1.940137645E+01  -1.048629135E-01
1.940795207E+01  -1.743093878E-01
1.941452770E+01  -6.143853664E-01
1.942110332E+01  -3.964473009E-01
1.942767894E+01  9.773558378E-02
1.943425457E+01  2.853713185E-02
1.944083019E+01  1.084195852E+00
1.944740581E+01  6.695637107E-01
1.945398144E+01  -8.771561384E-01
1.946055706E+01  -9.565550685E-01
1.946713268E+01  4.608477354E-01
1.947370831E+01  1.495492756E-01
1.948028393E+01  4.243904352E-01
1.948685955E+01  -4.616088569E-01
1.949343517E+01  1.127357185E-01
