# == pyFAI calibration ==
# Distance Sample to Detector: 0.400151958433 m
# PONI: 1.472e-01, 1.496e-01 m
# Rotations: -0.001085 0.000539 -0.000000 rad
# 
# == Fit2d calibration ==
# Distance Sample-beamCenter: 400.152 mm
# Center: x=1500.210, y=1474.586 pix
# Tilt: 0.069 deg  TiltPlanRot: 26.426 deg
# 
# Detector Detector	 Spline= None	 PixelSize= 1.000e-04, 1.000e-04 m
#    Detector has a mask: False 
#    Detector has a dark current: False 
#    detector has a flat field: False 
# 
# Wavelength: 4.12969e-11 m
# Mask applied: None
# Dark current applied: None
# Flat field applied: None
# Polarization factor: None
# Normalization factor: None
#
# 2th_deg	 I
6.000256231E+00  4.523873329E-02
6.006831854E+00  -1.371381432E-01
6.013407478E+00  -1.155586019E-01
6.019983101E+00  5.950474143E-01
6.026558724E+00  -4.269544967E-03
6.033134347E+00  -5.427772403E-01
6.039709971E+00  -8.993797302E-01
6.046285594E+00  8.599740863E-01
6.052861217E+00  1.361980796E+00
6.059436840E+00  1.611173868E+00
6.066012464E+00  5.379141569E-01
6.072588087E+00  7.736728787E-01
6.079163710E+00  8.583844900E-01
6.085739334E+00  1.125025392E+00
6.092314957E+00  2.035792112E+00
6.098890580E+00  1.975352049E+00
6.105466203E+00  2.874210358E+00
6.112041827E+00  2.943729639E+00
6.118617450E+00  3.810912132E+00
6.125193073E+00  4.141625404E+00
6.131768696E+00  3.818803310E+00
6.138344320E+00  2.779322147E+00
6.144919943E+00  2.417905807E+00
6.151495566E+00  2.153360367E+00
6.158071190E+00  1.971956849E+00
6.164646813E+00  1.462560177E+00
6.171222436E+00  1.446210623E+00
6.177798059E+00  1.964286685E+00
6.184373683E+00  1.254395843E+00
6.190949306E+00  2.755068541E-01
6.197524929E+00  7.348979264E-02
6.204100552E+00  -2.050388418E-02
6.210676176E+00  -1.622550040E-01
6.217251799E+00  -8.210096359E-01
6.223827422E+00  2.103277855E-02
6.230403045E+00  5.283566117E-01
6.236978669E+00  2.424039602E+00
6.243554292E+00  2.953758478E+00
6.250129915E+00  4.587409973E+00
6.256705539E+00  3.180452824E+00
6.263281162E+00  1.513351917E+00
6.269856785E+00  -2.890086770E-01
6.276432408E+00  6.987217665E-01
6.283008032E+00  2.914218903E+00
6.289583655E+00  3.173546076E+00
6.296159278E+00  2.591298580E+00
6.302734901E+00  1.731096148E+00
6.309310525E+00  1.950784922E+00
6.315886148E+00  2.713853359E+00
6.322461771E+00  3.342188835E+00
6.329037394E+00  4.685299397E+00
6.335613018E+00  4.005347252E+00
6.342188641E+00  2.593154430E+00
6.348764264E+00  2.455045223E+00
6.355339888E+00  4.197491169E+00
6.361915511E+00  5.898139477E+00
6.368491134E+00  6.271816730E+00
6.375066757E+00  5.875157833E+00
6.381642381E+00  4.450437069E+00
6.388218004E+00  4.420793056E+00
6.394793627E+00  4.651096821E+00
6.401369250E+00  5.034996033E+00
6.407944874E+00  4.300697803E+00
6.414520497E+00  4.193203449E+00
6.421096120E+00  3.855734825E+00
6.427671743E+00  5.039745331E+00
6.434247367E+00  6.403769493E+00
6.440822990E+00  6.112535477E+00
6.447398613E+00  4.959977627E+00
6.453974237E+00  5.980511189E+00
6.460549860E+00  6.488023758E+00
6.467125483E+00  6.591912746E+00
6.473701106E+00  5.571515560E+00
6.480276730E+00  3.970761538E+00
6.486852353E+00  3.090292454E+00
6.493427976E+00  2.826277971E+00
6.500003599E+00  3.458462000E+00
6.506579223E+00  3.863034964E+00
6.513154846E+00  4.406184673E+00
6.519730469E+00  6.095964909E+00
6.526306092E+00  6.915331841E+00
6.532881716E+00  7.306555271E+00
6.539457339E+00  6.447634220E+00
6.546032962E+00  5.854400158E+00
6.552608586E+00  6.212107658E+00
6.559184209E+00  6.396484375E+00
6.565759832E+00  5.118792057E+00
6.572335455E+00  4.711510181E+00
6.578911079E+00  3.947695971E+00
6.585486702E+00  2.488269091E+00
6.592062325E+00  1.482115149E+00
6.598637948E+00  1.932779670E+00
6.605213572E+00  1.760954738E+00
6.611789195E+00  2.324964285E+00
6.618364818E+00  2.121907949E+00
6.624940441E+00  3.683135033E+00
6.631516065E+00  4.086415768E+00
6.638091688E+00  5.253758907E+00
6.644667311E+00  5.232624531E+00
6.651242935E+00  5.179294109E+00
6.657818558E+00  3.825640440E+00
6.664394181E+00  3.355571985E+00
6.670969804E+00  4.031973362E+00
6.677545428E+00  4.717695713E+00
6.684121051E+00  4.410711288E+00
6.690696674E+00  2.805647850E+00
6.697272297E+00  2.466651201E+00
6.703847921E+00  2.359630346E+00
6.710423544E+00  3.013414145E+00
6.716999167E+00  2.840575933E+00
6.723574790E+00  3.429452419E+00
6.730150414E+00  2.885967255E+00
6.736726037E+00  2.703284502E+00
6.743301660E+00  2.221793175E+00
6.749877284E+00  3.488013506E+00
6.756452907E+00  3.980197430E+00
6.763028530E+00  5.070254326E+00
6.769604153E+00  5.136061192E+00
6.776179777E+00  5.027284622E+00
6.782755400E+00  5.079535007E+00
6.789331023E+00  5.398051262E+00
6.795906646E+00  5.581808567E+00
6.802482270E+00  6.774770737E+00
6.809057893E+00  7.503275871E+00
6.815633516E+00  7.650623798E+00
6.822209139E+00  6.531761646E+00
6.828784763E+00  5.864454269E+00
6.835360386E+00  4.463600159E+00
6.841936009E+00  4.512207031E+00
6.848511633E+00  2.491064548E+00
6.855087256E+00  1.766619325E+00
6.861662879E+00  1.612449765E+00
6.868238502E+00  1.375274897E+00
6.874814126E+00  1.221044302E+00
6.881389749E+00  2.350271225E+00
6.887965372E+00  3.275867939E+00
6.894540995E+00  2.838291645E+00
6.901116619E+00  3.459947824E+00
6.907692242E+00  3.642274380E+00
6.914267865E+00  4.066343307E+00
6.920843488E+00  2.938580036E+00
6.927419112E+00  2.057186365E+00
6.933994735E+00  9.513195753E-01
6.940570358E+00  -7.261444698E-04
6.947145982E+00  4.851369858E-01
6.953721605E+00  1.779469967E+00
6.960297228E+00  2.450160503E+00
6.966872851E+00  2.940168381E+00
6.973448475E+00  2.534331322E+00
6.980024098E+00  2.016110182E+00
6.986599721E+00  3.560681939E-01
6.993175344E+00  -3.320726156E-01
6.999750968E+00  -4.891873896E-01
7.006326591E+00  3.907124400E-01
7.012902214E+00  5.011955500E-01
7.019477837E+00  1.428357959E-01
7.026053461E+00  -2.567777932E-01
7.032629084E+00  2.895647883E-01
7.039204707E+00  2.722725630E+00
7.045780331E+00  4.104198456E+00
7.052355954E+00  5.228400707E+00
7.058931577E+00  4.206645966E+00
7.065507200E+00  3.222014904E+00
7.072082824E+00  3.280320883E+00
7.078658447E+00  4.069963932E+00
7.085234070E+00  5.141609192E+00
7.091809693E+00  6.235818863E+00
7.098385317E+00  7.046717167E+00
7.104960940E+00  6.253237247E+00
7.111536563E+00  5.282305241E+00
7.118112186E+00  4.754639149E+00
7.124687810E+00  4.174203873E+00
7.131263433E+00  3.478019476E+00
7.137839056E+00  4.272494316E+00
7.144414680E+00  4.712336063E+00
7.150990303E+00  4.692940712E+00
7.157565926E+00  4.891903877E+00
7.164141549E+00  4.199203491E+00
7.170717173E+00  4.147384167E+00
7.177292796E+00  4.367128849E+00
7.183868419E+00  4.577503204E+00
7.190444042E+00  6.657737732E+00
7.197019666E+00  8.790299416E+00
7.203595289E+00  1.118209076E+01
7.210170912E+00  1.228417969E+01
7.216746535E+00  1.153105831E+01
7.223322159E+00  9.262034416E+00
7.229897782E+00  7.666545391E+00
7.236473405E+00  7.499488831E+00
7.243049029E+00  7.942550182E+00
7.249624652E+00  8.858106613E+00
7.256200275E+00  8.518230438E+00
7.262775898E+00  8.710639000E+00
7.269351522E+00  8.013107300E+00
7.275927145E+00  9.125495911E+00
7.282502768E+00  9.936635017E+00
7.289078391E+00  1.019913197E+01
7.295654015E+00  8.352111816E+00
7.302229638E+00  7.998269558E+00
7.308805261E+00  8.664604187E+00
7.315380884E+00  8.609056473E+00
7.321956508E+00  8.686715126E+00
7.328532131E+00  8.084185600E+00
7.335107754E+00  8.320082664E+00
7.341683378E+00  7.548733711E+00
7.348259001E+00  7.768673420E+00
7.354834624E+00  8.443739891E+00
7.361410247E+00  9.927878380E+00
7.367985871E+00  1.037627220E+01
7.374561494E+00  1.111009502E+01
7.381137117E+00  1.066582680E+01
7.387712740E+00  1.072201252E+01
7.394288364E+00  9.956692696E+00
7.400863987E+00  1.078324032E+01
7.407439610E+00  1.019997787E+01
7.414015233E+00  8.876608849E+00
7.420590857E+00  7.631755352E+00
7.427166480E+00  7.320662498E+00
7.433742103E+00  6.936763763E+00
7.440317727E+00  6.884145260E+00
7.446893350E+00  6.158213139E+00
7.453468973E+00  4.141108513E+00
7.460044596E+00  2.715967417E+00
7.466620220E+00  2.740067720E+00
7.473195843E+00  2.725984573E+00
7.479771466E+00  1.841102362E+00
7.486347089E+00  1.248925567E+00
7.492922713E+00  1.608366668E-01
7.499498336E+00  -6.253294349E-01
7.506073959E+00  3.425853550E-01
7.512649582E+00  1.373698562E-01
7.519225206E+00  2.332044095E-01
7.525800829E+00  5.979442000E-01
7.532376452E+00  2.015383005E+00
7.538952076E+00  2.482223749E+00
7.545527699E+00  2.902411699E+00
7.552103322E+00  1.658909678E+00
7.558678945E+00  -3.181261197E-02
7.565254569E+00  -2.843321860E-01
7.571830192E+00  7.525997758E-01
7.578405815E+00  1.451719284E+00
7.584981438E+00  2.389864206E+00
7.591557062E+00  3.091624737E+00
7.598132685E+00  2.716352463E+00
7.604708308E+00  2.238334179E+00
7.611283931E+00  3.232923746E+00
7.617859555E+00  3.297439098E+00
7.624435178E+00  2.310437918E+00
7.631010801E+00  2.370193958E+00
7.637586425E+00  3.266864061E+00
7.644162048E+00  4.648015976E+00
7.650737671E+00  5.898510456E+00
7.657313294E+00  5.802124023E+00
7.663888918E+00  5.647991657E+00
7.670464541E+00  5.369772434E+00
7.677040164E+00  4.996817112E+00
7.683615787E+00  6.182981491E+00
7.690191411E+00  6.181235313E+00
7.696767034E+00  6.654697895E+00
7.703342657E+00  5.912969589E+00
7.709918281E+00  7.873556137E+00
7.716493904E+00  9.639507294E+00
7.723069527E+00  1.264541721E+01
7.729645150E+00  1.308759499E+01
7.736220774E+00  1.318969536E+01
7.742796397E+00  1.345808887E+01
7.749372020E+00  1.395725536E+01
7.755947643E+00  1.509933090E+01
7.762523267E+00  1.432428837E+01
7.769098890E+00  1.452424908E+01
7.775674513E+00  1.381155777E+01
7.782250136E+00  1.273410416E+01
7.788825760E+00  1.189788818E+01
7.795401383E+00  1.062424660E+01
7.801977006E+00  1.074379253E+01
7.808552630E+00  1.172337532E+01
7.815128253E+00  1.163091755E+01
7.821703876E+00  1.033219433E+01
7.828279499E+00  7.990834713E+00
7.834855123E+00  6.494098663E+00
7.841430746E+00  6.011960506E+00
7.848006369E+00  6.520058632E+00
7.854581992E+00  7.041391373E+00
7.861157616E+00  7.057452679E+00
7.867733239E+00  6.121020794E+00
7.874308862E+00  4.056357384E+00
7.880884485E+00  3.886938095E+00
7.887460109E+00  5.288580418E+00
7.894035732E+00  5.731530666E+00
7.900611355E+00  4.645016670E+00
7.907186979E+00  3.839123249E+00
7.913762602E+00  2.342192173E+00
7.920338225E+00  4.304145336E+00
7.926913848E+00  5.895410061E+00
7.933489472E+00  7.645785809E+00
7.940065095E+00  8.147083282E+00
7.946640718E+00  9.367574692E+00
7.953216341E+00  1.007533932E+01
7.959791965E+00  1.037683201E+01
7.966367588E+00  1.038974094E+01
7.972943211E+00  1.078204727E+01
7.979518834E+00  1.291753387E+01
7.986094458E+00  1.380256462E+01
7.992670081E+00  1.625112152E+01
7.999245704E+00  1.898051071E+01
8.005821328E+00  2.326565933E+01
8.012396951E+00  2.330239296E+01
8.018972574E+00  2.389591789E+01
8.025548197E+00  2.537292862E+01
8.032123821E+00  2.829400826E+01
8.038699444E+00  3.243849564E+01
8.045275067E+00  3.683035660E+01
8.051850690E+00  4.213516998E+01
8.058426314E+00  4.543013000E+01
8.065001937E+00  5.034272766E+01
8.071577560E+00  5.560641861E+01
8.078153183E+00  6.080231476E+01
8.084728807E+00  6.623759460E+01
8.091304430E+00  7.389620972E+01
8.097880053E+00  8.117029572E+01
8.104455677E+00  8.924448395E+01
8.111031300E+00  9.961981201E+01
8.117606923E+00  1.104579468E+02
8.124182546E+00  1.246065903E+02
8.130758170E+00  1.410052643E+02
8.137333793E+00  1.590167847E+02
8.143909416E+00  1.800606384E+02
8.150485039E+00  2.029718170E+02
8.157060663E+00  2.301278229E+02
8.163636286E+00  2.616556091E+02
8.170211909E+00  2.997095032E+02
8.176787532E+00  3.451831055E+02
8.183363156E+00  3.974123230E+02
8.189938779E+00  4.597810364E+02
8.196514402E+00  5.304927979E+02
8.203090026E+00  6.117278442E+02
8.209665649E+00  7.138732910E+02
8.216241272E+00  8.150703735E+02
8.222816895E+00  9.156974487E+02
8.229392519E+00  1.008464478E+03
8.235968142E+00  1.079640503E+03
8.242543765E+00  1.145516113E+03
8.249119388E+00  1.171331299E+03
8.255695012E+00  1.175450684E+03
8.262270635E+00  1.148223999E+03
8.268846258E+00  1.123161255E+03
8.275421881E+00  1.079083496E+03
8.281997505E+00  1.029780518E+03
8.288573128E+00  9.666877441E+02
8.295148751E+00  8.859697876E+02
8.301724375E+00  7.930811157E+02
8.308299998E+00  6.885975952E+02
8.314875621E+00  5.885073242E+02
8.321451244E+00  5.059393921E+02
8.328026868E+00  4.220895386E+02
8.334602491E+00  3.700417480E+02
8.341178114E+00  3.176506042E+02
8.347753737E+00  2.806001282E+02
8.354329361E+00  2.450334930E+02
8.360904984E+00  2.188242188E+02
8.367480607E+00  1.940827179E+02
8.374056230E+00  1.758763885E+02
8.380631854E+00  1.580602570E+02
8.387207477E+00  1.441636505E+02
8.393783100E+00  1.306231384E+02
8.400358724E+00  1.202165909E+02
8.406934347E+00  1.100373077E+02
8.413509970E+00  1.024168777E+02
8.420085593E+00  9.654526520E+01
8.426661217E+00  9.033461761E+01
8.433236840E+00  8.508282471E+01
8.439812463E+00  7.958045197E+01
8.446388086E+00  7.515661621E+01
8.452963710E+00  7.117462921E+01
8.459539333E+00  6.927661133E+01
8.466114956E+00  6.885856628E+01
8.472690579E+00  6.991661072E+01
8.479266203E+00  7.094343567E+01
8.485841826E+00  7.198592377E+01
8.492417449E+00  7.198108673E+01
8.498993073E+00  7.153343201E+01
8.505568696E+00  6.909020996E+01
8.512144319E+00  6.654010010E+01
8.518719942E+00  6.192507935E+01
8.525295566E+00  5.800100708E+01
8.531871189E+00  5.305009460E+01
8.538446812E+00  4.996783829E+01
8.545022435E+00  4.706232452E+01
8.551598059E+00  4.415874100E+01
8.558173682E+00  4.053490067E+01
8.564749305E+00  3.685436249E+01
8.571324928E+00  3.233536911E+01
8.577900552E+00  2.903211212E+01
8.584476175E+00  2.690697479E+01
8.591051798E+00  2.491209412E+01
8.597627422E+00  2.507724571E+01
8.604203045E+00  2.696638489E+01
8.610778668E+00  2.932657814E+01
8.617354291E+00  2.935948181E+01
8.623929915E+00  2.738784981E+01
8.630505538E+00  2.457330704E+01
8.637081161E+00  2.461800766E+01
8.643656784E+00  2.387987137E+01
8.650232408E+00  2.289211464E+01
8.656808031E+00  2.247653008E+01
8.663383654E+00  2.160286522E+01
8.669959277E+00  2.212954140E+01
8.676534901E+00  2.444281578E+01
8.683110524E+00  2.644164085E+01
8.689686147E+00  2.677887917E+01
8.696261771E+00  2.816501427E+01
8.702837394E+00  2.950144958E+01
8.709413017E+00  2.900403976E+01
8.715988640E+00  2.955807877E+01
8.722564264E+00  3.192434692E+01
8.729139887E+00  3.315854645E+01
8.735715510E+00  3.436765289E+01
8.742291133E+00  3.464105988E+01
8.748866757E+00  3.504472733E+01
8.755442380E+00  3.444245529E+01
8.762018003E+00  3.415508652E+01
8.768593626E+00  3.599466705E+01
8.775169250E+00  3.672050476E+01
8.781744873E+00  3.593664169E+01
8.788320496E+00  3.279788589E+01
8.794896120E+00  2.997272110E+01
8.801471743E+00  2.827562714E+01
8.808047366E+00  2.654793549E+01
8.814622989E+00  2.599327469E+01
8.821198613E+00  2.417367554E+01
8.827774236E+00  2.276981544E+01
8.834349859E+00  2.089059258E+01
8.840925482E+00  1.776697350E+01
8.847501106E+00  1.587357426E+01
8.854076729E+00  1.343842888E+01
8.860652352E+00  1.335509491E+01
8.867227975E+00  1.290043068E+01
8.873803599E+00  1.256760216E+01
8.880379222E+00  1.023209572E+01
8.886954845E+00  9.326531410E+00
8.893530469E+00  9.527177811E+00
8.900106092E+00  9.088917732E+00
8.906681715E+00  9.468295097E+00
8.913257338E+00  1.001101494E+01
8.919832962E+00  1.043534184E+01
8.926408585E+00  9.748604774E+00
8.932984208E+00  8.368778229E+00
8.939559831E+00  8.245089531E+00
8.946135455E+00  9.682236671E+00
8.952711078E+00  1.111919785E+01
8.959286701E+00  1.281770802E+01
8.965862324E+00  1.288423061E+01
8.972437948E+00  1.397406006E+01
8.979013571E+00  1.240265083E+01
8.985589194E+00  1.333604622E+01
8.992164818E+00  1.430747890E+01
8.998740441E+00  1.800594711E+01
9.005316064E+00  2.103549194E+01
9.011891687E+00  2.532583618E+01
9.018467311E+00  2.735895729E+01
9.025042934E+00  2.861146164E+01
9.031618557E+00  2.975575447E+01
9.038194180E+00  2.903651237E+01
9.044769804E+00  3.012370872E+01
9.051345427E+00  2.879717445E+01
9.057921050E+00  2.941682625E+01
9.064496673E+00  3.056620979E+01
9.071072297E+00  3.357643127E+01
9.077647920E+00  3.575516129E+01
9.084223543E+00  3.750088501E+01
9.090799167E+00  3.872332001E+01
9.097374790E+00  4.102945328E+01
9.103950413E+00  4.333534622E+01
9.110526036E+00  4.620403290E+01
9.117101660E+00  4.969463730E+01
9.123677283E+00  5.157332230E+01
9.130252906E+00  5.163260269E+01
9.136828529E+00  5.212984085E+01
9.143404153E+00  5.461829758E+01
9.149979776E+00  5.605356979E+01
9.156555399E+00  5.736098099E+01
9.163131022E+00  5.737308121E+01
9.169706646E+00  5.798198318E+01
9.176282269E+00  5.888546371E+01
9.182857892E+00  6.125541687E+01
9.189433516E+00  6.332623291E+01
9.196009139E+00  6.504519653E+01
9.202584762E+00  6.773751831E+01
9.209160385E+00  6.978650665E+01
9.215736009E+00  7.201345825E+01
9.222311632E+00  7.422942352E+01
9.228887255E+00  7.746468353E+01
9.235462878E+00  8.018651581E+01
9.242038502E+00  8.198918152E+01
9.248614125E+00  8.306652069E+01
9.255189748E+00  8.407382202E+01
9.261765372E+00  8.403305054E+01
9.268340995E+00  8.469227600E+01
9.274916618E+00  8.497043610E+01
9.281492241E+00  8.350378418E+01
9.288067865E+00  8.207209015E+01
9.294643488E+00  8.083994293E+01
9.301219111E+00  7.910615540E+01
9.307794734E+00  7.626382446E+01
9.314370358E+00  7.331589508E+01
9.320945981E+00  6.971257019E+01
9.327521604E+00  6.707252502E+01
9.334097227E+00  6.550515747E+01
9.340672851E+00  6.333079529E+01
9.347248474E+00  6.176138687E+01
9.353824097E+00  6.155378723E+01
9.360399721E+00  6.117092133E+01
9.366975344E+00  6.101369095E+01
9.373550967E+00  6.172813034E+01
9.380126590E+00  6.291973495E+01
9.386702214E+00  6.400114441E+01
9.393277837E+00  6.604415894E+01
9.399853460E+00  6.947021484E+01
9.406429083E+00  7.369974518E+01
9.413004707E+00  7.902429962E+01
9.419580330E+00  8.691461182E+01
9.426155953E+00  9.797228241E+01
9.432731576E+00  1.103575058E+02
9.439307200E+00  1.249472580E+02
9.445882823E+00  1.434188232E+02
9.452458446E+00  1.645285950E+02
9.459034070E+00  1.905446472E+02
9.465609693E+00  2.231686859E+02
9.472185316E+00  2.620623474E+02
9.478760939E+00  3.103238220E+02
9.485336563E+00  3.731376648E+02
9.491912186E+00  4.554960938E+02
9.498487809E+00  5.567307129E+02
9.505063432E+00  6.659771729E+02
9.511639056E+00  7.723420410E+02
9.518214679E+00  8.630811157E+02
9.524790302E+00  9.293702393E+02
9.531365925E+00  9.522040405E+02
9.537941549E+00  9.502489014E+02
9.544517172E+00  9.111778564E+02
9.551092795E+00  8.693691406E+02
9.557668419E+00  8.075738525E+02
9.564244042E+00  7.397538452E+02
9.570819665E+00  6.622650757E+02
9.577395288E+00  5.911714478E+02
9.583970912E+00  5.174241943E+02
9.590546535E+00  4.568098755E+02
9.597122158E+00  4.031194763E+02
9.603697781E+00  3.608202820E+02
9.610273405E+00  3.245167847E+02
9.616849028E+00  2.924423218E+02
9.623424651E+00  2.627028198E+02
9.630000274E+00  2.368774109E+02
9.636575898E+00  2.151911316E+02
9.643151521E+00  1.965258179E+02
9.649727144E+00  1.805372009E+02
9.656302768E+00  1.664113007E+02
9.662878391E+00  1.546534576E+02
9.669454014E+00  1.480957031E+02
9.676029637E+00  1.424655609E+02
9.682605261E+00  1.386321564E+02
9.689180884E+00  1.360583496E+02
9.695756507E+00  1.343808594E+02
9.702332130E+00  1.333936157E+02
9.708907754E+00  1.320561066E+02
9.715483377E+00  1.322491455E+02
9.722059000E+00  1.356041107E+02
9.728634623E+00  1.401659088E+02
9.735210247E+00  1.428949738E+02
9.741785870E+00  1.454724579E+02
9.748361493E+00  1.445917358E+02
9.754937117E+00  1.419774017E+02
9.761512740E+00  1.376490021E+02
9.768088363E+00  1.340796661E+02
9.774663986E+00  1.310882568E+02
9.781239610E+00  1.271777115E+02
9.787815233E+00  1.215877533E+02
9.794390856E+00  1.140518036E+02
9.800966479E+00  1.053970108E+02
9.807542103E+00  9.676496124E+01
9.814117726E+00  9.049795532E+01
9.820693349E+00  8.641727448E+01
9.827268972E+00  8.253804779E+01
9.833844596E+00  7.749894714E+01
9.840420219E+00  7.091519928E+01
9.846995842E+00  6.263835526E+01
9.853571466E+00  5.393793869E+01
9.860147089E+00  4.741598892E+01
9.866722712E+00  4.246457672E+01
9.873298335E+00  3.882245636E+01
9.879873959E+00  3.566490173E+01
9.886449582E+00  3.346063614E+01
9.893025205E+00  3.160563660E+01
9.899600828E+00  2.914235115E+01
9.906176452E+00  2.845551872E+01
9.912752075E+00  2.762274170E+01
9.919327698E+00  2.827435875E+01
9.925903321E+00  2.894060516E+01
9.932478945E+00  2.952134705E+01
9.939054568E+00  2.894427681E+01
9.945630191E+00  2.895593643E+01
9.952205815E+00  2.938049889E+01
9.958781438E+00  2.997915077E+01
9.965357061E+00  3.094081116E+01
9.971932684E+00  3.396709442E+01
9.978508308E+00  3.629085922E+01
9.985083931E+00  3.913373947E+01
9.991659554E+00  4.077791595E+01
9.998235177E+00  4.357636642E+01
1.000481080E+01  4.611937332E+01
1.001138642E+01  4.979311752E+01
1.001796205E+01  5.374306488E+01
1.002453767E+01  5.877531815E+01
1.003111329E+01  6.402703857E+01
1.003768892E+01  6.933460999E+01
1.004426454E+01  7.613597870E+01
1.005084016E+01  8.163372803E+01
1.005741579E+01  8.717597961E+01
1.006399141E+01  9.196630096E+01
1.007056703E+01  9.797876740E+01
1.007714266E+01  1.050649261E+02
1.008371828E+01  1.116588058E+02
1.009029390E+01  1.199791336E+02
1.009686953E+01  1.277202072E+02
1.010344515E+01  1.332501831E+02
1.011002077E+01  1.364469299E+02
1.011659640E+01  1.414320374E+02
1.012317202E+01  1.483504944E+02
1.012974764E+01  1.567784271E+02
1.013632327E+01  1.631865387E+02
1.014289889E+01  1.689190369E+02
1.014947451E+01  1.722605743E+02
1.015605014E+01  1.758273468E+02
1.016262576E+01  1.784152222E+02
1.016920138E+01  1.804299469E+02
1.017577701E+01  1.801063690E+02
1.018235263E+01  1.799703369E+02
1.018892825E+01  1.799862061E+02
1.019550388E+01  1.766768951E+02
1.020207950E+01  1.705892639E+02
1.020865512E+01  1.641754150E+02
1.021523075E+01  1.578777466E+02
1.022180637E+01  1.488788147E+02
1.022838199E+01  1.384662170E+02
1.023495762E+01  1.287722473E+02
1.024153324E+01  1.206186447E+02
1.024810886E+01  1.117456207E+02
1.025468448E+01  1.028391724E+02
1.026126011E+01  9.388658142E+01
1.026783573E+01  8.655673981E+01
1.027441135E+01  8.223829651E+01
1.028098698E+01  7.895464325E+01
1.028756260E+01  7.420866394E+01
1.029413822E+01  6.974788666E+01
1.030071385E+01  6.461912537E+01
1.030728947E+01  5.854451752E+01
1.031386509E+01  5.454109192E+01
1.032044072E+01  5.225431061E+01
1.032701634E+01  5.060599518E+01
1.033359196E+01  5.063955307E+01
1.034016759E+01  5.118110657E+01
1.034674321E+01  5.102063370E+01
1.035331883E+01  5.089636230E+01
1.035989446E+01  5.004261398E+01
1.036647008E+01  5.071519470E+01
1.037304570E+01  5.125486374E+01
1.037962133E+01  5.206342697E+01
1.038619695E+01  5.391474915E+01
1.039277257E+01  5.424969864E+01
1.039934820E+01  5.436362839E+01
1.040592382E+01  5.286928558E+01
1.041249944E+01  5.221680450E+01
1.041907507E+01  5.162244797E+01
1.042565069E+01  5.195335388E+01
1.043222631E+01  5.185888672E+01
1.043880194E+01  5.008265686E+01
1.044537756E+01  4.835557556E+01
1.045195318E+01  4.649449539E+01
1.045852881E+01  4.463657761E+01
1.046510443E+01  4.245122147E+01
1.047168005E+01  4.110489655E+01
1.047825568E+01  3.991738510E+01
1.048483130E+01  3.778856277E+01
1.049140692E+01  3.567982101E+01
1.049798255E+01  3.348419952E+01
1.050455817E+01  3.061768150E+01
1.051113379E+01  2.931608391E+01
1.051770942E+01  3.040262413E+01
1.052428504E+01  3.049495316E+01
1.053086066E+01  3.069070625E+01
1.053743629E+01  2.870568275E+01
1.054401191E+01  2.765705109E+01
1.055058753E+01  2.504674149E+01
1.055716316E+01  2.209495544E+01
1.056373878E+01  1.904141617E+01
1.057031440E+01  1.851599121E+01
1.057689002E+01  1.568907070E+01
1.058346565E+01  1.394491482E+01
1.059004127E+01  1.201250839E+01
1.059661689E+01  1.134691048E+01
1.060319252E+01  1.165855026E+01
1.060976814E+01  1.196498585E+01
1.061634376E+01  1.022615623E+01
1.062291939E+01  1.040248775E+01
1.062949501E+01  1.063360596E+01
1.063607063E+01  1.139604568E+01
1.064264626E+01  1.258187199E+01
1.064922188E+01  1.266371250E+01
1.065579750E+01  1.276263142E+01
1.066237313E+01  1.414275646E+01
1.066894875E+01  1.555063725E+01
1.067552437E+01  1.591690350E+01
1.068210000E+01  1.505939007E+01
1.068867562E+01  1.575784397E+01
1.069525124E+01  1.731349564E+01
1.070182687E+01  1.800071907E+01
1.070840249E+01  1.751234436E+01
1.071497811E+01  1.760272026E+01
1.072155374E+01  1.925666809E+01
1.072812936E+01  1.905617332E+01
1.073470498E+01  1.877658081E+01
1.074128061E+01  1.988463974E+01
1.074785623E+01  1.994231606E+01
1.075443185E+01  1.954624176E+01
1.076100748E+01  1.952205467E+01
1.076758310E+01  1.894978142E+01
1.077415872E+01  1.759256363E+01
1.078073435E+01  1.760269547E+01
1.078730997E+01  1.830386162E+01
1.079388559E+01  1.803293037E+01
1.080046122E+01  1.585333729E+01
1.080703684E+01  1.378505421E+01
1.081361246E+01  1.160782814E+01
1.082018809E+01  1.051790619E+01
1.082676371E+01  8.353139877E+00
1.083333933E+01  6.776577950E+00
1.083991496E+01  7.096291065E+00
1.084649058E+01  6.476796150E+00
1.085306620E+01  5.261811256E+00
1.085964183E+01  6.697889328E+00
1.086621745E+01  9.111661911E+00
1.087279307E+01  1.036638546E+01
1.087936870E+01  1.147521877E+01
1.088594432E+01  1.217007351E+01
1.089251994E+01  1.065259171E+01
1.089909556E+01  1.049892521E+01
1.090567119E+01  1.115583515E+01
1.091224681E+01  1.233131599E+01
1.091882243E+01  1.350582218E+01
1.092539806E+01  1.342104244E+01
1.093197368E+01  1.379083252E+01
1.093854930E+01  1.221674633E+01
1.094512493E+01  1.018852234E+01
1.095170055E+01  8.923437119E+00
1.095827617E+01  9.836034775E+00
1.096485180E+01  1.127054882E+01
1.097142742E+01  1.214982319E+01
1.097800304E+01  1.169357872E+01
1.098457867E+01  1.091304111E+01
1.099115429E+01  1.027304745E+01
1.099772991E+01  9.862458229E+00
1.100430554E+01  8.958121300E+00
1.101088116E+01  8.262664795E+00
1.101745678E+01  8.617878914E+00
1.102403241E+01  7.812325478E+00
1.103060803E+01  8.004686356E+00
1.103718365E+01  7.534791946E+00
1.104375928E+01  7.333292961E+00
1.105033490E+01  6.750760078E+00
1.105691052E+01  6.329656124E+00
1.106348615E+01  6.647600651E+00
1.107006177E+01  6.831037045E+00
1.107663739E+01  6.748108387E+00
1.108321302E+01  5.980822563E+00
1.108978864E+01  4.844583988E+00
1.109636426E+01  4.851084232E+00
1.110293989E+01  5.739553928E+00
1.110951551E+01  6.114943981E+00
1.111609113E+01  5.931324005E+00
1.112266676E+01  5.903506279E+00
1.112924238E+01  5.244835854E+00
1.113581800E+01  4.006060123E+00
1.114239363E+01  1.609506845E+00
1.114896925E+01  1.869593143E+00
1.115554487E+01  1.955716133E+00
1.116212050E+01  4.249674797E+00
1.116869612E+01  6.061491013E+00
1.117527174E+01  7.191420555E+00
1.118184737E+01  7.854758263E+00
1.118842299E+01  7.373733521E+00
1.119499861E+01  6.257099152E+00
1.120157424E+01  5.100034237E+00
1.120814986E+01  5.208657742E+00
1.121472548E+01  5.478931904E+00
1.122130111E+01  7.332699299E+00
1.122787673E+01  8.279695511E+00
1.123445235E+01  8.639225960E+00
1.124102797E+01  7.010874271E+00
1.124760360E+01  5.784749985E+00
1.125417922E+01  5.785537243E+00
1.126075484E+01  6.701201439E+00
1.126733047E+01  7.200668812E+00
1.127390609E+01  7.860581398E+00
1.128048171E+01  7.051040649E+00
1.128705734E+01  7.005920410E+00
1.129363296E+01  7.255482674E+00
1.130020858E+01  7.557042599E+00
1.130678421E+01  7.193796635E+00
1.131335983E+01  7.060271263E+00
1.131993545E+01  7.074920654E+00
1.132651108E+01  5.081983089E+00
1.133308670E+01  2.246010303E+00
1.133966232E+01  1.359485865E+00
1.134623795E+01  1.802297950E+00
1.135281357E+01  2.741445065E+00
1.135938919E+01  2.834650278E+00
1.136596482E+01  2.043348789E+00
1.137254044E+01  1.724484682E+00
1.137911606E+01  2.579529583E-01
1.138569169E+01  -8.816746622E-02
1.139226731E+01  8.501995206E-01
1.139884293E+01  1.074044585E+00
1.140541856E+01  1.054574013E+00
1.141199418E+01  3.115044832E+00
1.141856980E+01  6.885843754E+00
1.142514543E+01  9.267864227E+00
1.143172105E+01  1.053895473E+01
1.143829667E+01  8.771883011E+00
1.144487230E+01  8.192739487E+00
1.145144792E+01  7.406517506E+00
1.145802354E+01  6.780419827E+00
1.146459917E+01  6.866705418E+00
1.147117479E+01  8.001324654E+00
1.147775041E+01  9.392296791E+00
1.148432604E+01  1.091365719E+01
1.149090166E+01  1.274168587E+01
1.149747728E+01  1.482658768E+01
1.150405291E+01  1.460538292E+01
1.151062853E+01  1.194087410E+01
1.151720415E+01  9.767149925E+00
1.152377978E+01  1.050657940E+01
1.153035540E+01  1.187547874E+01
1.153693102E+01  1.298713493E+01
1.154350665E+01  1.436645317E+01
1.155008227E+01  1.566138935E+01
1.155665789E+01  1.757409477E+01
1.156323351E+01  1.924129105E+01
1.156980914E+01  1.949892235E+01
1.157638476E+01  1.769952965E+01
1.158296038E+01  1.630405235E+01
1.158953601E+01  1.618945122E+01
1.159611163E+01  1.801002502E+01
1.160268725E+01  1.999478149E+01
1.160926288E+01  2.271794510E+01
1.161583850E+01  2.383089066E+01
1.162241412E+01  2.409631538E+01
1.162898975E+01  2.481696510E+01
1.163556537E+01  2.567888260E+01
1.164214099E+01  2.632025719E+01
1.164871662E+01  2.809315491E+01
1.165529224E+01  2.743605804E+01
1.166186786E+01  2.560093689E+01
1.166844349E+01  2.437295914E+01
1.167501911E+01  2.387323570E+01
1.168159473E+01  2.339377403E+01
1.168817036E+01  2.334572601E+01
1.169474598E+01  2.324375725E+01
1.170132160E+01  2.211083794E+01
1.170789723E+01  2.112423897E+01
1.171447285E+01  1.870585442E+01
1.172104847E+01  1.858911133E+01
1.172762410E+01  1.800157356E+01
1.173419972E+01  1.629287529E+01
1.174077534E+01  1.262710857E+01
1.174735097E+01  1.140859985E+01
1.175392659E+01  1.156560040E+01
1.176050221E+01  1.358495808E+01
1.176707784E+01  1.512344265E+01
1.177365346E+01  1.444719887E+01
1.178022908E+01  1.455674744E+01
1.178680471E+01  1.503854847E+01
1.179338033E+01  1.566802406E+01
1.179995595E+01  1.449794197E+01
1.180653158E+01  1.430519104E+01
1.181310720E+01  1.286080074E+01
1.181968282E+01  1.285132694E+01
1.182625845E+01  1.211127567E+01
1.183283407E+01  1.213091278E+01
1.183940969E+01  9.753531456E+00
1.184598532E+01  7.762854576E+00
1.185256094E+01  6.659889221E+00
1.185913656E+01  7.751792908E+00
1.186571219E+01  8.022970200E+00
1.187228781E+01  9.679015160E+00
1.187886343E+01  1.124778652E+01
1.188543906E+01  1.053985786E+01
1.189201468E+01  8.107501030E+00
1.189859030E+01  4.213922024E+00
1.190516592E+01  2.159926891E+00
1.191174155E+01  2.473858118E+00
1.191831717E+01  3.672338486E+00
1.192489279E+01  5.539568901E+00
1.193146842E+01  6.093147278E+00
1.193804404E+01  6.491784096E+00
1.194461966E+01  6.558740616E+00
1.195119529E+01  5.577726841E+00
1.195777091E+01  6.022392750E+00
1.196434653E+01  6.891779900E+00
1.197092216E+01  6.668326855E+00
1.197749778E+01  6.568847656E+00
1.198407340E+01  7.120215416E+00
1.199064903E+01  7.276548862E+00
1.199722465E+01  8.410912514E+00
1.200380027E+01  9.937385559E+00
1.201037590E+01  1.146829319E+01
1.201695152E+01  1.257982635E+01
1.202352714E+01  1.216360378E+01
1.203010277E+01  1.186173916E+01
1.203667839E+01  1.095110703E+01
1.204325401E+01  1.113046169E+01
1.204982964E+01  1.135929871E+01
1.205640526E+01  1.174164867E+01
1.206298088E+01  1.181659794E+01
1.206955651E+01  1.088300323E+01
1.207613213E+01  9.702124596E+00
1.208270775E+01  1.099713516E+01
1.208928338E+01  1.209228706E+01
1.209585900E+01  1.314923286E+01
1.210243462E+01  1.307230473E+01
1.210901025E+01  1.335421562E+01
1.211558587E+01  1.309900475E+01
1.212216149E+01  1.340192604E+01
1.212873712E+01  1.411849022E+01
1.213531274E+01  1.402217388E+01
1.214188836E+01  1.520188713E+01
1.214846399E+01  1.590816212E+01
1.215503961E+01  1.573674583E+01
1.216161523E+01  1.319940281E+01
1.216819086E+01  1.249344540E+01
1.217476648E+01  1.161989594E+01
1.218134210E+01  1.138300037E+01
1.218791773E+01  1.292587376E+01
1.219449335E+01  1.394192410E+01
1.220106897E+01  1.545658779E+01
1.220764460E+01  1.545233727E+01
1.221422022E+01  1.443361282E+01
1.222079584E+01  1.190143967E+01
1.222737146E+01  1.249893188E+01
1.223394709E+01  1.360748291E+01
1.224052271E+01  1.475253010E+01
1.224709833E+01  1.292239952E+01
1.225367396E+01  1.216547489E+01
1.226024958E+01  1.226939774E+01
1.226682520E+01  1.352278519E+01
1.227340083E+01  1.341395950E+01
1.227997645E+01  1.198251152E+01
1.228655207E+01  1.112594128E+01
1.229312770E+01  1.191459751E+01
1.229970332E+01  1.274304867E+01
1.230627894E+01  1.228906345E+01
1.231285457E+01  1.298724556E+01
1.231943019E+01  1.369895649E+01
1.232600581E+01  1.558389282E+01
1.233258144E+01  1.548632431E+01
1.233915706E+01  1.474758720E+01
1.234573268E+01  1.240579414E+01
1.235230831E+01  1.145413494E+01
1.235888393E+01  1.298345566E+01
1.236545955E+01  1.491077232E+01
1.237203518E+01  1.635573578E+01
1.237861080E+01  1.566553783E+01
1.238518642E+01  1.531822586E+01
1.239176205E+01  1.539585400E+01
1.239833767E+01  1.538476944E+01
1.240491329E+01  1.567757225E+01
1.241148892E+01  1.656334496E+01
1.241806454E+01  1.808165741E+01
1.242464016E+01  1.880235481E+01
1.243121579E+01  2.015123940E+01
1.243779141E+01  2.188760948E+01
1.244436703E+01  2.391675949E+01
1.245094266E+01  2.657611465E+01
1.245751828E+01  2.946579361E+01
1.246409390E+01  3.046814346E+01
1.247066953E+01  2.994402885E+01
1.247724515E+01  2.987833977E+01
1.248382077E+01  2.991319084E+01
1.249039640E+01  2.978444672E+01
1.249697202E+01  2.969282341E+01
1.250354764E+01  3.139420700E+01
1.251012327E+01  3.274995422E+01
1.251669889E+01  3.431234741E+01
1.252327451E+01  3.675817108E+01
1.252985014E+01  4.007330322E+01
1.253642576E+01  4.360250473E+01
1.254300138E+01  4.667295837E+01
1.254957700E+01  4.721585083E+01
1.255615263E+01  4.728835297E+01
1.256272825E+01  4.933434677E+01
1.256930387E+01  5.116197968E+01
1.257587950E+01  5.238408279E+01
1.258245512E+01  5.367159653E+01
1.258903074E+01  5.362172318E+01
1.259560637E+01  5.291712952E+01
1.260218199E+01  5.568675613E+01
1.260875761E+01  5.987595749E+01
1.261533324E+01  6.200381470E+01
1.262190886E+01  6.124713516E+01
1.262848448E+01  5.943504715E+01
1.263506011E+01  6.033420181E+01
1.264163573E+01  6.110039520E+01
1.264821135E+01  6.211793900E+01
1.265478698E+01  6.133804703E+01
1.266136260E+01  6.123389816E+01
1.266793822E+01  6.076402283E+01
1.267451385E+01  6.081809998E+01
1.268108947E+01  6.051628113E+01
1.268766509E+01  6.143965149E+01
1.269424072E+01  6.262290573E+01
1.270081634E+01  6.563101196E+01
1.270739196E+01  6.880042267E+01
1.271396759E+01  7.262334442E+01
1.272054321E+01  7.553486633E+01
1.272711883E+01  7.728890991E+01
1.273369446E+01  8.169310760E+01
1.274027008E+01  8.420500946E+01
1.274684570E+01  8.484365082E+01
1.275342133E+01  8.602654266E+01
1.275999695E+01  8.677664185E+01
1.276657257E+01  8.902169037E+01
1.277314820E+01  9.243846130E+01
1.277972382E+01  9.565683746E+01
1.278629944E+01  9.661335754E+01
1.279287507E+01  9.782168579E+01
1.279945069E+01  9.986142731E+01
1.280602631E+01  1.031744766E+02
1.281260194E+01  1.065889587E+02
1.281917756E+01  1.093827133E+02
1.282575318E+01  1.105484161E+02
1.283232881E+01  1.135201492E+02
1.283890443E+01  1.153672485E+02
1.284548005E+01  1.168465424E+02
1.285205568E+01  1.179829559E+02
1.285863130E+01  1.201558685E+02
1.286520692E+01  1.194941864E+02
1.287178255E+01  1.201239014E+02
1.287835817E+01  1.214346466E+02
1.288493379E+01  1.241359177E+02
1.289150941E+01  1.245138397E+02
1.289808504E+01  1.250347214E+02
1.290466066E+01  1.252103043E+02
1.291123628E+01  1.235815887E+02
1.291781191E+01  1.230069962E+02
1.292438753E+01  1.233087997E+02
1.293096315E+01  1.243556595E+02
1.293753878E+01  1.230870361E+02
1.294411440E+01  1.202949371E+02
1.295069002E+01  1.186102295E+02
1.295726565E+01  1.169811783E+02
1.296384127E+01  1.142022171E+02
1.297041689E+01  1.090590286E+02
1.297699252E+01  1.047767029E+02
1.298356814E+01  1.008259811E+02
1.299014376E+01  9.672249603E+01
1.299671939E+01  9.364399719E+01
1.300329501E+01  9.054363251E+01
1.300987063E+01  8.777346802E+01
1.301644626E+01  8.310306549E+01
1.302302188E+01  7.975362396E+01
1.302959750E+01  7.632038116E+01
1.303617313E+01  7.418714142E+01
1.304274875E+01  7.007170868E+01
1.304932437E+01  6.658102417E+01
1.305590000E+01  6.289479065E+01
1.306247562E+01  6.040902710E+01
1.306905124E+01  5.709689331E+01
1.307562687E+01  5.570645142E+01
1.308220249E+01  5.520792389E+01
1.308877811E+01  5.553590012E+01
1.309535374E+01  5.443013000E+01
1.310192936E+01  5.188867950E+01
1.310850498E+01  4.792082214E+01
1.311508061E+01  4.498506927E+01
1.312165623E+01  4.055407715E+01
1.312823185E+01  3.764884949E+01
1.313480748E+01  3.493100357E+01
1.314138310E+01  3.412807846E+01
1.314795872E+01  3.221126175E+01
1.315453435E+01  3.222889709E+01
1.316110997E+01  3.039776611E+01
1.316768559E+01  2.968661690E+01
1.317426122E+01  2.793674850E+01
1.318083684E+01  2.716816902E+01
1.318741246E+01  2.615234947E+01
1.319398809E+01  2.782482719E+01
1.320056371E+01  2.994876862E+01
1.320713933E+01  3.037962532E+01
1.321371495E+01  2.999238586E+01
1.322029058E+01  2.853946877E+01
1.322686620E+01  2.682994080E+01
1.323344182E+01  2.638770866E+01
1.324001745E+01  2.728990173E+01
1.324659307E+01  2.868054199E+01
1.325316869E+01  2.969339943E+01
1.325974432E+01  3.083822060E+01
1.326631994E+01  3.060815048E+01
1.327289556E+01  3.370873642E+01
1.327947119E+01  3.652716446E+01
1.328604681E+01  3.960297012E+01
1.329262243E+01  4.025693130E+01
1.329919806E+01  4.098611069E+01
1.330577368E+01  4.123091507E+01
1.331234930E+01  4.350109482E+01
1.331892493E+01  4.688355637E+01
1.332550055E+01  5.249596024E+01
1.333207617E+01  5.690958405E+01
1.333865180E+01  6.155263901E+01
1.334522742E+01  6.668488312E+01
1.335180304E+01  7.195279694E+01
1.335837867E+01  7.700920105E+01
1.336495429E+01  8.059970093E+01
1.337152991E+01  8.789079285E+01
1.337810554E+01  9.717398071E+01
1.338468116E+01  1.072969208E+02
1.339125678E+01  1.185359802E+02
1.339783241E+01  1.308223114E+02
1.340440803E+01  1.439645081E+02
1.341098365E+01  1.574523315E+02
1.341755928E+01  1.728487549E+02
1.342413490E+01  1.913378906E+02
1.343071052E+01  2.110481262E+02
1.343728615E+01  2.329643707E+02
1.344386177E+01  2.538077850E+02
1.345043739E+01  2.789617004E+02
1.345701302E+01  3.045530396E+02
1.346358864E+01  3.344685669E+02
1.347016426E+01  3.666545715E+02
1.347673989E+01  4.026667175E+02
1.348331551E+01  4.286895447E+02
1.348989113E+01  4.511166382E+02
1.349646676E+01  4.647966614E+02
1.350304238E+01  4.767334595E+02
1.350961800E+01  4.792239685E+02
1.351619363E+01  4.779800720E+02
1.352276925E+01  4.668181458E+02
1.352934487E+01  4.459618530E+02
1.353592050E+01  4.193145142E+02
1.354249612E+01  3.872364502E+02
1.354907174E+01  3.501944580E+02
1.355564736E+01  3.101523743E+02
1.356222299E+01  2.750555420E+02
1.356879861E+01  2.428013763E+02
1.357537423E+01  2.151388855E+02
1.358194986E+01  1.892399292E+02
1.358852548E+01  1.663657227E+02
1.359510110E+01  1.468897858E+02
1.360167673E+01  1.312227325E+02
1.360825235E+01  1.187244110E+02
1.361482797E+01  1.085427322E+02
1.362140360E+01  9.694087219E+01
1.362797922E+01  8.679280853E+01
1.363455484E+01  7.749452972E+01
1.364113047E+01  7.111875153E+01
1.364770609E+01  6.527530670E+01
1.365428171E+01  6.106036758E+01
1.366085734E+01  5.612868500E+01
1.366743296E+01  5.185132599E+01
1.367400858E+01  4.679222107E+01
1.368058421E+01  4.431951523E+01
1.368715983E+01  4.161627960E+01
1.369373545E+01  3.813171005E+01
1.370031108E+01  3.504204941E+01
1.370688670E+01  3.245371246E+01
1.371346232E+01  2.993601799E+01
1.372003795E+01  2.876774597E+01
1.372661357E+01  2.788979721E+01
1.373318919E+01  2.655263519E+01
1.373976482E+01  2.371473694E+01
1.374634044E+01  2.292784691E+01
1.375291606E+01  2.154350662E+01
1.375949169E+01  2.278436089E+01
1.376606731E+01  2.355371475E+01
1.377264293E+01  2.369091415E+01
1.377921856E+01  2.302895546E+01
1.378579418E+01  2.219380951E+01
1.379236980E+01  2.188273239E+01
1.379894543E+01  2.267677498E+01
1.380552105E+01  2.270239639E+01
1.381209667E+01  2.293664742E+01
1.381867230E+01  2.445960426E+01
1.382524792E+01  2.595485687E+01
1.383182354E+01  2.542827034E+01
1.383839917E+01  2.447603416E+01
1.384497479E+01  2.466797447E+01
1.385155041E+01  2.493622208E+01
1.385812604E+01  2.572267723E+01
1.386470166E+01  2.737646103E+01
1.387127728E+01  2.891173744E+01
1.387785290E+01  3.003847122E+01
1.388442853E+01  3.140949440E+01
1.389100415E+01  3.067276192E+01
1.389757977E+01  3.014907265E+01
1.390415540E+01  3.193803787E+01
1.391073102E+01  3.474180603E+01
1.391730664E+01  3.528596115E+01
1.392388227E+01  3.484247589E+01
1.393045789E+01  3.501338959E+01
1.393703351E+01  3.575671387E+01
1.394360914E+01  3.755778885E+01
1.395018476E+01  3.914316559E+01
1.395676038E+01  3.946645355E+01
1.396333601E+01  4.044121170E+01
1.396991163E+01  4.129447556E+01
1.397648725E+01  4.337096024E+01
1.398306288E+01  4.459691620E+01
1.398963850E+01  4.670279694E+01
1.399621412E+01  4.839609528E+01
1.400278975E+01  5.111917877E+01
1.400936537E+01  5.203217316E+01
1.401594099E+01  5.436748505E+01
1.402251662E+01  5.553035355E+01
1.402909224E+01  5.733032608E+01
1.403566786E+01  5.699002457E+01
1.404224349E+01  5.827944946E+01
1.404881911E+01  5.934651184E+01
1.405539473E+01  6.057106400E+01
1.406197036E+01  6.152827454E+01
1.406854598E+01  6.306967163E+01
1.407512160E+01  6.393643570E+01
1.408169723E+01  6.321105576E+01
1.408827285E+01  6.264593506E+01
1.409484847E+01  6.368539047E+01
1.410142410E+01  6.210477066E+01
1.410799972E+01  6.032543945E+01
1.411457534E+01  5.861445618E+01
1.412115097E+01  5.748790359E+01
1.412772659E+01  5.635152435E+01
1.413430221E+01  5.425558090E+01
1.414087784E+01  5.212387848E+01
1.414745346E+01  5.137728882E+01
1.415402908E+01  5.157488251E+01
1.416060471E+01  4.966487503E+01
1.416718033E+01  4.842020416E+01
1.417375595E+01  4.653372192E+01
1.418033158E+01  4.584916306E+01
1.418690720E+01  4.498321533E+01
1.419348282E+01  4.289046097E+01
1.420005844E+01  4.104208374E+01
1.420663407E+01  3.860848236E+01
1.421320969E+01  3.665605545E+01
1.421978531E+01  3.439281464E+01
1.422636094E+01  3.142031670E+01
1.423293656E+01  3.117556763E+01
1.423951218E+01  3.207361221E+01
1.424608781E+01  3.172821617E+01
1.425266343E+01  3.161936188E+01
1.425923905E+01  3.150682068E+01
1.426581468E+01  3.096432114E+01
1.427239030E+01  2.968669128E+01
1.427896592E+01  2.867198181E+01
1.428554155E+01  2.830544853E+01
1.429211717E+01  2.783855820E+01
1.429869279E+01  2.865266228E+01
1.430526842E+01  2.798213577E+01
1.431184404E+01  2.755305290E+01
1.431841966E+01  2.827410507E+01
1.432499529E+01  2.815359116E+01
1.433157091E+01  2.757090378E+01
1.433814653E+01  2.603385162E+01
1.434472216E+01  2.680219078E+01
1.435129778E+01  2.525775337E+01
1.435787340E+01  2.409926033E+01
1.436444903E+01  2.363040924E+01
1.437102465E+01  2.511290741E+01
1.437760027E+01  2.530504036E+01
1.438417590E+01  2.365601158E+01
1.439075152E+01  2.187869072E+01
1.439732714E+01  2.093692780E+01
1.440390277E+01  2.197034454E+01
1.441047839E+01  2.280802345E+01
1.441705401E+01  2.278050041E+01
1.442362964E+01  2.222759628E+01
1.443020526E+01  2.038951302E+01
1.443678088E+01  2.008800125E+01
1.444335651E+01  2.027712822E+01
1.444993213E+01  2.096467590E+01
1.445650775E+01  2.259787560E+01
1.446308338E+01  2.487542534E+01
1.446965900E+01  2.593156815E+01
1.447623462E+01  2.734195137E+01
1.448281025E+01  2.705576134E+01
1.448938587E+01  2.465401649E+01
1.449596149E+01  2.286666298E+01
1.450253712E+01  2.408917618E+01
1.450911274E+01  2.643480492E+01
1.451568836E+01  2.700800705E+01
1.452226399E+01  2.619351768E+01
1.452883961E+01  2.623203087E+01
1.453541523E+01  2.697752190E+01
1.454199085E+01  2.719998360E+01
1.454856648E+01  2.809714317E+01
1.455514210E+01  2.925882339E+01
1.456171772E+01  3.043255806E+01
1.456829335E+01  3.032633972E+01
1.457486897E+01  2.981026459E+01
1.458144459E+01  2.930814743E+01
1.458802022E+01  2.734292221E+01
1.459459584E+01  2.648782158E+01
1.460117146E+01  2.643277931E+01
1.460774709E+01  2.764409256E+01
1.461432271E+01  2.831560707E+01
1.462089833E+01  2.830132294E+01
1.462747396E+01  2.842692184E+01
1.463404958E+01  2.871486473E+01
1.464062520E+01  2.786046410E+01
1.464720083E+01  2.563276863E+01
1.465377645E+01  2.489945602E+01
1.466035207E+01  2.346912766E+01
1.466692770E+01  2.415526390E+01
1.467350332E+01  2.528550720E+01
1.468007894E+01  2.536914444E+01
1.468665457E+01  2.520061493E+01
1.469323019E+01  2.639418411E+01
1.469980581E+01  2.742690849E+01
1.470638144E+01  2.808590508E+01
1.471295706E+01  2.848495102E+01
1.471953268E+01  2.950490761E+01
1.472610831E+01  2.854031372E+01
1.473268393E+01  2.669566154E+01
1.473925955E+01  2.453638649E+01
1.474583518E+01  2.418260193E+01
1.475241080E+01  2.487014961E+01
1.475898642E+01  2.693154335E+01
1.476556205E+01  2.827303314E+01
1.477213767E+01  2.921150208E+01
1.477871329E+01  2.839440727E+01
1.478528892E+01  2.718208885E+01
1.479186454E+01  2.684553146E+01
1.479844016E+01  2.693794250E+01
1.480501579E+01  2.644319534E+01
1.481159141E+01  2.765717125E+01
1.481816703E+01  2.905690193E+01
1.482474266E+01  2.838650703E+01
1.483131828E+01  2.755856133E+01
1.483789390E+01  2.639384842E+01
1.484446953E+01  2.524585533E+01
1.485104515E+01  2.460088539E+01
1.485762077E+01  2.432073402E+01
1.486419639E+01  2.563388634E+01
1.487077202E+01  2.656815147E+01
1.487734764E+01  2.585592651E+01
1.488392326E+01  2.420567894E+01
1.489049889E+01  2.408418083E+01
1.489707451E+01  2.529951477E+01
1.490365013E+01  2.614560318E+01
1.491022576E+01  2.531773376E+01
1.491680138E+01  2.282126045E+01
1.492337700E+01  2.207998848E+01
1.492995263E+01  2.169888115E+01
1.493652825E+01  2.234638214E+01
1.494310387E+01  2.274513435E+01
1.494967950E+01  2.321641541E+01
1.495625512E+01  2.266890717E+01
1.496283074E+01  2.179547501E+01
1.496940637E+01  2.169133186E+01
1.497598199E+01  2.228567505E+01
1.498255761E+01  2.087342834E+01
1.498913324E+01  1.867676544E+01
1.499570886E+01  1.744618034E+01
1.500228448E+01  1.639604187E+01
1.500886011E+01  1.636522865E+01
1.501543573E+01  1.824828720E+01
1.502201135E+01  1.901007843E+01
1.502858698E+01  1.977513695E+01
1.503516260E+01  1.907912636E+01
1.504173822E+01  1.731709290E+01
1.504831385E+01  1.704033089E+01
1.505488947E+01  1.659115410E+01
1.506146509E+01  1.644761848E+01
1.506804072E+01  1.603407097E+01
1.507461634E+01  1.584370708E+01
1.508119196E+01  1.663632393E+01
1.508776759E+01  1.749935532E+01
1.509434321E+01  1.738498497E+01
1.510091883E+01  1.696072197E+01
1.510749446E+01  1.520169640E+01
1.511407008E+01  1.500247288E+01
1.512064570E+01  1.573515129E+01
1.512722133E+01  1.618931198E+01
1.513379695E+01  1.696801186E+01
1.514037257E+01  1.657371712E+01
1.514694820E+01  1.534141541E+01
1.515352382E+01  1.446302509E+01
1.516009944E+01  1.309091187E+01
1.516667507E+01  1.331786919E+01
1.517325069E+01  1.386120033E+01
1.517982631E+01  1.406857777E+01
1.518640194E+01  1.467976284E+01
1.519297756E+01  1.377972698E+01
1.519955318E+01  1.362482929E+01
1.520612880E+01  1.219359398E+01
1.521270443E+01  1.045477676E+01
1.521928005E+01  9.312680244E+00
1.522585567E+01  9.297581673E+00
1.523243130E+01  1.007012749E+01
1.523900692E+01  1.010541534E+01
1.524558254E+01  9.249638557E+00
1.525215817E+01  8.152210236E+00
1.525873379E+01  9.422991753E+00
1.526530941E+01  1.028805637E+01
1.527188504E+01  1.084896564E+01
1.527846066E+01  9.336187363E+00
1.528503628E+01  8.848842621E+00
1.529161191E+01  7.390837193E+00
1.529818753E+01  7.042251587E+00
1.530476315E+01  7.160021782E+00
1.531133878E+01  8.849133492E+00
1.531791440E+01  9.543673515E+00
1.532449002E+01  1.143408203E+01
1.533106565E+01  1.052085590E+01
1.533764127E+01  8.405083656E+00
1.534421689E+01  6.114123821E+00
1.535079252E+01  5.524948597E+00
1.535736814E+01  6.845098019E+00
1.536394376E+01  8.816295624E+00
1.537051939E+01  7.950775146E+00
1.537709501E+01  8.199250221E+00
1.538367063E+01  8.224839211E+00
1.539024626E+01  8.938711166E+00
1.539682188E+01  9.959067345E+00
1.540339750E+01  1.057891941E+01
1.540997313E+01  1.139450073E+01
1.541654875E+01  1.253427696E+01
1.542312437E+01  1.295239639E+01
1.542970000E+01  1.287644958E+01
1.543627562E+01  1.138949680E+01
1.544285124E+01  1.031532097E+01
1.544942687E+01  1.011882114E+01
1.545600249E+01  1.152515030E+01
1.546257811E+01  1.345868206E+01
1.546915374E+01  1.581791019E+01
1.547572936E+01  1.703160286E+01
1.548230498E+01  1.720723915E+01
1.548888061E+01  1.682973480E+01
1.549545623E+01  1.820237160E+01
1.550203185E+01  1.806152916E+01
1.550860748E+01  1.774075699E+01
1.551518310E+01  1.787584877E+01
1.552175872E+01  1.987749481E+01
1.552833434E+01  2.081898689E+01
1.553490997E+01  2.106364822E+01
1.554148559E+01  2.172871017E+01
1.554806121E+01  2.234448242E+01
1.555463684E+01  2.263854027E+01
1.556121246E+01  2.503718948E+01
1.556778808E+01  2.716985130E+01
1.557436371E+01  2.982171059E+01
1.558093933E+01  3.005968475E+01
1.558751495E+01  3.182081032E+01
1.559409058E+01  3.327307129E+01
1.560066620E+01  3.624949265E+01
1.560724182E+01  3.737802124E+01
1.561381745E+01  3.899313354E+01
1.562039307E+01  4.163488770E+01
1.562696869E+01  4.628570175E+01
1.563354432E+01  4.903445816E+01
1.564011994E+01  5.151494217E+01
1.564669556E+01  5.269005585E+01
1.565327119E+01  5.484592819E+01
1.565984681E+01  5.919350433E+01
1.566642243E+01  6.563024902E+01
1.567299806E+01  7.122646332E+01
1.567957368E+01  7.736009979E+01
1.568614930E+01  8.272451019E+01
1.569272493E+01  8.896716309E+01
1.569930055E+01  9.350701141E+01
1.570587617E+01  9.855402374E+01
1.571245180E+01  1.074539185E+02
1.571902742E+01  1.178551407E+02
1.572560304E+01  1.287635651E+02
1.573217867E+01  1.399819489E+02
1.573875429E+01  1.527485962E+02
1.574532991E+01  1.678232880E+02
1.575190554E+01  1.837919922E+02
1.575848116E+01  2.025072632E+02
1.576505678E+01  2.249994507E+02
1.577163241E+01  2.509951019E+02
1.577820803E+01  2.789679260E+02
1.578478365E+01  3.102245789E+02
1.579135928E+01  3.453891296E+02
1.579793490E+01  3.846764832E+02
1.580451052E+01  4.248874817E+02
1.581108615E+01  4.660123596E+02
1.581766177E+01  5.084525757E+02
1.582423739E+01  5.489533081E+02
1.583081302E+01  5.844081421E+02
1.583738864E+01  6.183571167E+02
1.584396426E+01  6.459918213E+02
1.585053988E+01  6.742301636E+02
1.585711551E+01  6.895253906E+02
1.586369113E+01  6.964673462E+02
1.587026675E+01  6.830922852E+02
1.587684238E+01  6.523952637E+02
1.588341800E+01  6.104028320E+02
1.588999362E+01  5.575485229E+02
1.589656925E+01  5.026302490E+02
1.590314487E+01  4.478160706E+02
1.590972049E+01  3.995688782E+02
1.591629612E+01  3.557343750E+02
1.592287174E+01  3.191573792E+02
1.592944736E+01  2.867333984E+02
1.593602299E+01  2.589438782E+02
1.594259861E+01  2.352937622E+02
1.594917423E+01  2.139968872E+02
1.595574986E+01  1.939331818E+02
1.596232548E+01  1.769786072E+02
1.596890110E+01  1.623021088E+02
1.597547673E+01  1.500472717E+02
1.598205235E+01  1.376935425E+02
1.598862797E+01  1.266257172E+02
1.599520360E+01  1.171406403E+02
1.600177922E+01  1.097402649E+02
1.600835484E+01  1.036335449E+02
1.601493047E+01  9.706365204E+01
1.602150609E+01  9.065261841E+01
1.602808171E+01  8.566411591E+01
1.603465734E+01  8.260984039E+01
1.604123296E+01  7.988234711E+01
1.604780858E+01  7.577361298E+01
1.605438421E+01  7.247796631E+01
1.606095983E+01  7.029616547E+01
1.606753545E+01  6.685710144E+01
1.607411108E+01  6.361682892E+01
1.608068670E+01  6.068470383E+01
1.608726232E+01  5.873455048E+01
1.609383795E+01  5.652808762E+01
1.610041357E+01  5.457019424E+01
1.610698919E+01  5.316653824E+01
1.611356482E+01  5.142894745E+01
1.612014044E+01  4.942188263E+01
1.612671606E+01  4.677035904E+01
1.613329169E+01  4.485036850E+01
1.613986731E+01  4.260871124E+01
1.614644293E+01  4.162793350E+01
1.615301856E+01  4.177037048E+01
1.615959418E+01  4.201944733E+01
1.616616980E+01  4.114278412E+01
1.617274543E+01  4.091921997E+01
1.617932105E+01  3.889616013E+01
1.618589667E+01  3.545987701E+01
1.619247229E+01  3.192340469E+01
1.619904792E+01  3.054947853E+01
1.620562354E+01  2.962721062E+01
1.621219916E+01  2.860195541E+01
1.621877479E+01  2.924036217E+01
1.622535041E+01  2.894432831E+01
1.623192603E+01  2.819583321E+01
1.623850166E+01  2.850028801E+01
1.624507728E+01  2.849054718E+01
1.625165290E+01  2.801771736E+01
1.625822853E+01  2.678789139E+01
1.626480415E+01  2.620197868E+01
1.627137977E+01  2.451439857E+01
1.627795540E+01  2.447810745E+01
1.628453102E+01  2.412583542E+01
1.629110664E+01  2.514656448E+01
1.629768227E+01  2.520583344E+01
1.630425789E+01  2.444475937E+01
1.631083351E+01  2.447662544E+01
1.631740914E+01  2.556168365E+01
1.632398476E+01  2.691086197E+01
1.633056038E+01  2.915940285E+01
1.633713601E+01  2.954899216E+01
1.634371163E+01  3.110304642E+01
1.635028725E+01  3.159595680E+01
1.635686288E+01  3.242027283E+01
1.636343850E+01  3.285429382E+01
1.637001412E+01  3.402590942E+01
1.637658975E+01  3.438235855E+01
1.638316537E+01  3.564333344E+01
1.638974099E+01  3.758321762E+01
1.639631662E+01  4.137384415E+01
1.640289224E+01  4.477934265E+01
1.640946786E+01  4.807897949E+01
1.641604349E+01  5.079420471E+01
1.642261911E+01  5.461297989E+01
1.642919473E+01  5.803381348E+01
1.643577036E+01  6.253080368E+01
1.644234598E+01  6.538127136E+01
1.644892160E+01  6.813403320E+01
1.645549723E+01  7.137843323E+01
1.646207285E+01  7.710029602E+01
1.646864847E+01  8.223858643E+01
1.647522410E+01  8.665561676E+01
1.648179972E+01  9.150177765E+01
1.648837534E+01  9.823900604E+01
1.649495097E+01  1.044634933E+02
1.650152659E+01  1.126606216E+02
1.650810221E+01  1.198626480E+02
1.651467783E+01  1.262365952E+02
1.652125346E+01  1.322522125E+02
1.652782908E+01  1.394378662E+02
1.653440470E+01  1.458326569E+02
1.654098033E+01  1.522413177E+02
1.654755595E+01  1.570945587E+02
1.655413157E+01  1.606014099E+02
1.656070720E+01  1.619787140E+02
1.656728282E+01  1.623983917E+02
1.657385844E+01  1.612472229E+02
1.658043407E+01  1.576141205E+02
1.658700969E+01  1.536885681E+02
1.659358531E+01  1.484032288E+02
1.660016094E+01  1.440716400E+02
1.660673656E+01  1.369086609E+02
1.661331218E+01  1.285031891E+02
1.661988781E+01  1.207459106E+02
1.662646343E+01  1.112813492E+02
1.663303905E+01  1.018902969E+02
1.663961468E+01  9.384180450E+01
1.664619030E+01  8.643521118E+01
1.665276592E+01  7.952402496E+01
1.665934155E+01  7.604135132E+01
1.666591717E+01  7.319763184E+01
1.667249279E+01  7.022721863E+01
1.667906842E+01  6.519993591E+01
1.668564404E+01  6.064259720E+01
1.669221966E+01  5.640430069E+01
1.669879529E+01  5.337271118E+01
1.670537091E+01  5.145111084E+01
1.671194653E+01  4.845342636E+01
1.671852216E+01  4.587961197E+01
1.672509778E+01  4.379407883E+01
1.673167340E+01  4.393555069E+01
1.673824903E+01  4.473806763E+01
1.674482465E+01  4.558438873E+01
1.675140027E+01  4.680406952E+01
1.675797590E+01  4.790536118E+01
1.676455152E+01  4.932328796E+01
1.677112714E+01  4.899237823E+01
1.677770277E+01  4.837061310E+01
1.678427839E+01  4.746918869E+01
1.679085401E+01  4.709130478E+01
1.679742964E+01  4.773109055E+01
1.680400526E+01  4.720883942E+01
1.681058088E+01  4.704017639E+01
1.681715651E+01  4.819384384E+01
1.682373213E+01  4.992718124E+01
1.683030775E+01  5.106246567E+01
1.683688338E+01  5.146201706E+01
1.684345900E+01  5.186414337E+01
1.685003462E+01  5.182698822E+01
1.685661024E+01  5.152099228E+01
1.686318587E+01  5.267569351E+01
1.686976149E+01  5.444397354E+01
1.687633711E+01  5.495722580E+01
1.688291274E+01  5.554558563E+01
1.688948836E+01  5.540979004E+01
1.689606398E+01  5.433798981E+01
1.690263961E+01  5.322086334E+01
1.690921523E+01  5.155895996E+01
1.691579085E+01  5.132206726E+01
1.692236648E+01  5.166453552E+01
1.692894210E+01  5.337010956E+01
1.693551772E+01  5.481726074E+01
1.694209335E+01  5.536003876E+01
1.694866897E+01  5.657367706E+01
1.695524459E+01  5.746163559E+01
1.696182022E+01  5.858692932E+01
1.696839584E+01  5.831920624E+01
1.697497146E+01  5.916141891E+01
1.698154709E+01  5.966191101E+01
1.698812271E+01  6.092078400E+01
1.699469833E+01  6.184428024E+01
1.700127396E+01  6.346608353E+01
1.700784958E+01  6.427590942E+01
1.701442520E+01  6.514825439E+01
1.702100083E+01  6.623052979E+01
1.702757645E+01  6.836450958E+01
1.703415207E+01  7.122787476E+01
1.704072770E+01  7.337672424E+01
1.704730332E+01  7.296628571E+01
1.705387894E+01  7.118937683E+01
1.706045457E+01  6.998831177E+01
1.706703019E+01  7.075855255E+01
1.707360581E+01  7.106594849E+01
1.708018144E+01  7.092265320E+01
1.708675706E+01  7.015576172E+01
1.709333268E+01  6.896688843E+01
1.709990831E+01  6.745119476E+01
1.710648393E+01  6.661547089E+01
1.711305955E+01  6.552755737E+01
1.711963518E+01  6.602776337E+01
1.712621080E+01  6.494271088E+01
1.713278642E+01  6.349750519E+01
1.713936205E+01  6.226976395E+01
1.714593767E+01  6.098410416E+01
1.715251329E+01  6.114395142E+01
1.715908892E+01  6.250909805E+01
1.716566454E+01  6.340720749E+01
1.717224016E+01  6.456536865E+01
1.717881578E+01  6.496116638E+01
1.718539141E+01  6.596086884E+01
1.719196703E+01  6.533942413E+01
1.719854265E+01  6.391184998E+01
1.720511828E+01  6.356883621E+01
1.721169390E+01  6.145156860E+01
1.721826952E+01  5.969049454E+01
1.722484515E+01  5.906694031E+01
1.723142077E+01  5.686955261E+01
1.723799639E+01  5.431764984E+01
1.724457202E+01  5.168278503E+01
1.725114764E+01  5.088495255E+01
1.725772326E+01  5.188368225E+01
1.726429889E+01  5.368001938E+01
1.727087451E+01  5.339021301E+01
1.727745013E+01  5.175943375E+01
1.728402576E+01  4.904600906E+01
1.729060138E+01  4.757907104E+01
1.729717700E+01  4.603001785E+01
1.730375263E+01  4.586516571E+01
1.731032825E+01  4.617483902E+01
1.731690387E+01  4.674613190E+01
1.732347950E+01  4.682462692E+01
1.733005512E+01  4.682777023E+01
1.733663074E+01  4.620228958E+01
1.734320637E+01  4.563319778E+01
1.734978199E+01  4.547980499E+01
1.735635761E+01  4.511705017E+01
1.736293324E+01  4.506195450E+01
1.736950886E+01  4.294725418E+01
1.737608448E+01  4.013224411E+01
1.738266011E+01  3.743863297E+01
1.738923573E+01  3.678186417E+01
1.739581135E+01  3.669067764E+01
1.740238698E+01  3.701070404E+01
1.740896260E+01  3.827703857E+01
1.741553822E+01  3.949254990E+01
1.742211385E+01  4.180074310E+01
1.742868947E+01  4.390714264E+01
1.743526509E+01  4.563349533E+01
1.744184072E+01  4.465312195E+01
1.744841634E+01  4.257685089E+01
1.745499196E+01  4.032754135E+01
1.746156759E+01  3.942082977E+01
1.746814321E+01  3.913213730E+01
1.747471883E+01  3.862165833E+01
1.748129446E+01  3.915116119E+01
1.748787008E+01  3.993360138E+01
1.749444570E+01  3.959746552E+01
1.750102132E+01  3.967310715E+01
1.750759695E+01  3.990621948E+01
1.751417257E+01  4.159719086E+01
1.752074819E+01  4.208888626E+01
1.752732382E+01  4.225934219E+01
1.753389944E+01  4.283814621E+01
1.754047506E+01  4.255293655E+01
1.754705069E+01  4.324902725E+01
1.755362631E+01  4.439281464E+01
1.756020193E+01  4.430811691E+01
1.756677756E+01  4.343299484E+01
1.757335318E+01  4.415325546E+01
1.757992880E+01  4.487618256E+01
1.758650443E+01  4.576832581E+01
1.759308005E+01  4.377696991E+01
1.759965567E+01  4.107743073E+01
1.760623130E+01  3.930593491E+01
1.761280692E+01  3.927350235E+01
1.761938254E+01  4.008020401E+01
1.762595817E+01  4.209317780E+01
1.763253379E+01  4.243835068E+01
1.763910941E+01  4.317961884E+01
1.764568504E+01  4.359326553E+01
1.765226066E+01  4.323046875E+01
1.765883628E+01  4.242560959E+01
1.766541191E+01  4.369225693E+01
1.767198753E+01  4.235452271E+01
1.767856315E+01  4.160272598E+01
1.768513878E+01  4.244701767E+01
1.769171440E+01  4.347665024E+01
1.769829002E+01  4.423254395E+01
1.770486565E+01  4.481470871E+01
1.771144127E+01  4.501895523E+01
1.771801689E+01  4.422022629E+01
1.772459252E+01  4.330469131E+01
1.773116814E+01  4.567905807E+01
1.773774376E+01  4.693899918E+01
1.774431939E+01  4.836088562E+01
1.775089501E+01  4.786659622E+01
1.775747063E+01  4.880577850E+01
1.776404626E+01  4.875464630E+01
1.777062188E+01  4.961805344E+01
1.777719750E+01  4.921492386E+01
1.778377313E+01  4.974457169E+01
1.779034875E+01  4.917487717E+01
1.779692437E+01  4.868418121E+01
1.780350000E+01  4.815687943E+01
1.781007562E+01  4.823813248E+01
1.781665124E+01  4.971761322E+01
1.782322687E+01  5.038354492E+01
1.782980249E+01  5.217941284E+01
1.783637811E+01  5.289440536E+01
1.784295373E+01  5.322443771E+01
1.784952936E+01  5.318572235E+01
1.785610498E+01  5.245998383E+01
1.786268060E+01  5.456829453E+01
1.786925623E+01  5.515523529E+01
1.787583185E+01  5.406751633E+01
1.788240747E+01  5.157419586E+01
1.788898310E+01  5.049068832E+01
1.789555872E+01  4.942340851E+01
1.790213434E+01  4.964329529E+01
1.790870997E+01  5.063855362E+01
1.791528559E+01  5.281582642E+01
1.792186121E+01  5.417646790E+01
1.792843684E+01  5.415247726E+01
1.793501246E+01  5.472076416E+01
1.794158808E+01  5.483479309E+01
1.794816371E+01  5.496120453E+01
1.795473933E+01  5.472874069E+01
1.796131495E+01  5.475394821E+01
1.796789058E+01  5.565142059E+01
1.797446620E+01  5.689219666E+01
1.798104182E+01  5.691121292E+01
1.798761745E+01  5.692221451E+01
1.799419307E+01  5.744073105E+01
1.800076869E+01  5.607654953E+01
1.800734432E+01  5.622171021E+01
1.801391994E+01  5.607295990E+01
1.802049556E+01  5.709416962E+01
1.802707119E+01  5.866963959E+01
1.803364681E+01  5.902843094E+01
1.804022243E+01  5.789572144E+01
1.804679806E+01  5.725794220E+01
1.805337368E+01  5.910984421E+01
1.805994930E+01  5.986319733E+01
1.806652493E+01  6.012948608E+01
1.807310055E+01  5.880878830E+01
1.807967617E+01  5.886709976E+01
1.808625180E+01  5.964884186E+01
1.809282742E+01  6.048817825E+01
1.809940304E+01  6.162990570E+01
1.810597867E+01  6.244283676E+01
1.811255429E+01  6.319908524E+01
1.811912991E+01  6.378158569E+01
1.812570554E+01  6.472119141E+01
1.813228116E+01  6.589639282E+01
1.813885678E+01  6.550838470E+01
1.814543241E+01  6.360307693E+01
1.815200803E+01  6.213794708E+01
1.815858365E+01  6.241078568E+01
1.816515927E+01  6.373691559E+01
1.817173490E+01  6.506835175E+01
1.817831052E+01  6.475599670E+01
1.818488614E+01  6.528843689E+01
1.819146177E+01  6.577678680E+01
1.819803739E+01  6.561632538E+01
1.820461301E+01  6.537859344E+01
1.821118864E+01  6.728012848E+01
1.821776426E+01  6.863368988E+01
1.822433988E+01  6.999225616E+01
1.823091551E+01  6.950893402E+01
1.823749113E+01  6.901407623E+01
1.824406675E+01  6.874140930E+01
1.825064238E+01  6.896765137E+01
1.825721800E+01  6.837725830E+01
1.826379362E+01  6.799555206E+01
1.827036925E+01  6.788648987E+01
1.827694487E+01  6.713700104E+01
1.828352049E+01  6.496297455E+01
1.829009612E+01  6.339576721E+01
1.829667174E+01  6.316550827E+01
1.830324736E+01  6.292765045E+01
1.830982299E+01  6.090702057E+01
1.831639861E+01  5.854673004E+01
1.832297423E+01  5.879576111E+01
1.832954986E+01  5.980135345E+01
1.833612548E+01  5.864872742E+01
1.834270110E+01  5.745923233E+01
1.834927673E+01  5.764815140E+01
1.835585235E+01  5.855064392E+01
1.836242797E+01  5.888857651E+01
1.836900360E+01  5.891843033E+01
1.837557922E+01  5.873452377E+01
1.838215484E+01  5.866648102E+01
1.838873047E+01  5.782316971E+01
1.839530609E+01  5.891934586E+01
1.840188171E+01  5.899686813E+01
1.840845734E+01  5.755602264E+01
1.841503296E+01  5.655994415E+01
1.842160858E+01  5.687601471E+01
1.842818421E+01  5.747850800E+01
1.843475983E+01  5.819225693E+01
1.844133545E+01  5.833914948E+01
1.844791108E+01  5.688510513E+01
1.845448670E+01  5.611000824E+01
1.846106232E+01  5.531281281E+01
1.846763795E+01  5.628174973E+01
1.847421357E+01  5.681340027E+01
1.848078919E+01  5.818193436E+01
1.848736482E+01  5.806343842E+01
1.849394044E+01  5.892458725E+01
1.850051606E+01  5.922139359E+01
1.850709168E+01  5.902665329E+01
1.851366731E+01  5.767591858E+01
1.852024293E+01  5.675238800E+01
1.852681855E+01  5.354830170E+01
1.853339418E+01  5.263184738E+01
1.853996980E+01  5.042917252E+01
1.854654542E+01  5.004858017E+01
1.855312105E+01  5.074684143E+01
1.855969667E+01  5.248141479E+01
1.856627229E+01  5.322976303E+01
1.857284792E+01  5.387947464E+01
1.857942354E+01  5.283957672E+01
1.858599916E+01  5.285057449E+01
1.859257479E+01  5.326373672E+01
1.859915041E+01  5.367730331E+01
1.860572603E+01  5.379685211E+01
1.861230166E+01  5.391524887E+01
1.861887728E+01  5.321636963E+01
1.862545290E+01  5.399824142E+01
1.863202853E+01  5.310469818E+01
1.863860415E+01  5.256503296E+01
1.864517977E+01  4.995681381E+01
1.865175540E+01  4.876428986E+01
1.865833102E+01  4.796973419E+01
1.866490664E+01  4.769652939E+01
1.867148227E+01  4.686397171E+01
1.867805789E+01  4.665117264E+01
1.868463351E+01  4.647950745E+01
1.869120914E+01  4.599163055E+01
1.869778476E+01  4.474438477E+01
1.870436038E+01  4.444268036E+01
1.871093601E+01  4.449909592E+01
1.871751163E+01  4.532098770E+01
1.872408725E+01  4.743353271E+01
1.873066288E+01  4.818381882E+01
1.873723850E+01  4.907628250E+01
1.874381412E+01  4.739672089E+01
1.875038975E+01  4.680550766E+01
1.875696537E+01  4.683122253E+01
1.876354099E+01  4.736964417E+01
1.877011662E+01  4.557139206E+01
1.877669224E+01  4.369347000E+01
1.878326786E+01  4.328035736E+01
1.878984349E+01  4.440374756E+01
1.879641911E+01  4.477235413E+01
1.880299473E+01  4.559275055E+01
1.880957036E+01  4.553174591E+01
1.881614598E+01  4.658601761E+01
1.882272160E+01  4.635847855E+01
1.882929722E+01  4.652510071E+01
1.883587285E+01  4.570944977E+01
1.884244847E+01  4.658281326E+01
1.884902409E+01  4.630568314E+01
1.885559972E+01  4.599164200E+01
1.886217534E+01  4.474163437E+01
1.886875096E+01  4.444283295E+01
1.887532659E+01  4.323209000E+01
1.888190221E+01  4.167957687E+01
1.888847783E+01  3.999538422E+01
1.889505346E+01  3.974731064E+01
1.890162908E+01  3.838286972E+01
1.890820470E+01  3.748757935E+01
1.891478033E+01  3.771953583E+01
1.892135595E+01  3.705690002E+01
1.892793157E+01  3.537453461E+01
1.893450720E+01  3.315974426E+01
1.894108282E+01  3.128414917E+01
1.894765844E+01  3.028631973E+01
1.895423407E+01  2.960506630E+01
1.896080969E+01  2.830444717E+01
1.896738531E+01  2.651849365E+01
1.897396094E+01  2.611862183E+01
1.898053656E+01  2.437470818E+01
1.898711218E+01  2.347996521E+01
1.899368781E+01  2.395964241E+01
1.900026343E+01  2.549673843E+01
1.900683905E+01  2.740425491E+01
1.901341468E+01  2.835868454E+01
1.901999030E+01  2.937331009E+01
1.902656592E+01  2.981250191E+01
1.903314155E+01  3.001007080E+01
1.903971717E+01  2.954481125E+01
1.904629279E+01  3.158979988E+01
1.905286842E+01  3.270597839E+01
1.905944404E+01  3.429243851E+01
1.906601966E+01  3.530524445E+01
1.907259529E+01  3.847564316E+01
1.907917091E+01  4.088912582E+01
1.908574653E+01  4.274062347E+01
1.909232216E+01  4.372151566E+01
1.909889778E+01  4.514925003E+01
1.910547340E+01  4.706029892E+01
1.911204903E+01  5.021815109E+01
1.911862465E+01  5.335615540E+01
1.912520027E+01  5.739455414E+01
1.913177590E+01  6.113949203E+01
1.913835152E+01  6.445529938E+01
1.914492714E+01  6.642658997E+01
1.915150276E+01  6.774665070E+01
1.915807839E+01  6.664788055E+01
1.916465401E+01  6.477091980E+01
1.917122963E+01  6.225694656E+01
1.917780526E+01  5.789775085E+01
1.918438088E+01  5.352843857E+01
1.919095650E+01  4.786883545E+01
1.919753213E+01  4.103518295E+01
1.920410775E+01  3.588169861E+01
1.921068337E+01  3.317734528E+01
1.921725900E+01  3.020266914E+01
1.922383462E+01  2.563196373E+01
1.923041024E+01  2.151912117E+01
1.923698587E+01  1.990624428E+01
1.924356149E+01  1.776415443E+01
1.925013711E+01  1.704029274E+01
1.925671274E+01  1.388355732E+01
1.926328836E+01  1.160585880E+01
1.926986398E+01  9.717497826E+00
1.927643961E+01  9.418393135E+00
1.928301523E+01  8.971540451E+00
1.928959085E+01  9.383040428E+00
1.929616648E+01  9.128799438E+00
1.930274210E+01  8.645913124E+00
1.930931772E+01  8.201107979E+00
1.931589335E+01  6.915442467E+00
1.932246897E+01  3.598461390E+00
1.932904459E+01  1.670438647E+00
1.933562022E+01  3.831200898E-01
1.934219584E+01  3.338164985E-01
1.934877146E+01  -4.120780230E-01
1.935534709E+01  1.091187000E+00
1.936192271E+01  1.541952610E+00
1.936849833E+01  9.356040955E-01
1.937507396E+01  -6.717838347E-02
1.938164958E+01  5.862245709E-02
1.938822520E+01  -1.461644173E+00
1.939480083E+01  -1.053994775E+00
1.940137645E+01  1.675420403E-01
1.940795207E+01  2.788889110E-01
1.941452770E+01  1.325127929E-01
1.942110332E+01  1.060867682E-01
1.942767894E+01  6.820480227E-01
1.943425457E+01  2.149041444E-01
1.944083019E+01  1.856123358E-01
1.944740581E+01  -7.524493933E-01
1.945398144E+01  -9.183626175E-01
1.946055706E+01  1.651055962E-01
1.946713268E+01  1.503545046E+00
1.947370831E+01  -5.262839794E-01
1.948028393E+01  -6.131766438E-01
1.948685955E+01  4.242729843E-01
1.949343517E+01  -7.368822396E-02
