# == pyFAI calibration ==
# Distance Sample to Detector: 0.400151958433 m
# PONI: 1.472e-01, 1.496e-01 m
# Rotations: -0.001085 0.000539 -0.000000 rad
# 
# == Fit2d calibration ==
# Distance Sample-beamCenter: 400.152 mm
# Center: x=1500.210, y=1474.586 pix
# Tilt: 0.069 deg  TiltPlanRot: 26.426 deg
# 
# Detector Detector	 Spline= None	 PixelSize= 1.000e-04, 1.000e-04 m
#    Detector has a mask: False 
#    Detector has a dark current: False 
#    detector has a flat field: False 
# 
# Wavelength: 4.12969e-11 m
# Mask applied: None
# Dark current applied: None
# Flat field applied: None
# Polarization factor: None
# Normalization factor: None
#
# 2th_deg	 I
6.000256231E+00  1.095072739E-02
6.006831854E+00  -6.424818188E-02
6.013407478E+00  1.156092361E-01
6.019983101E+00  -2.252643555E-02
6.026558724E+00  -1.082513779E-01
6.033134347E+00  5.000464991E-02
6.039709971E+00  4.813714698E-02
6.046285594E+00  -2.140077353E-01
6.052861217E+00  3.620495200E-01
6.059436840E+00  3.372576088E-02
6.066012464E+00  -2.651219964E-01
6.072588087E+00  -2.239967436E-01
6.079163710E+00  6.249554157E-01
6.085739334E+00  -2.391903847E-01
6.092314957E+00  -1.904701442E-01
6.098890580E+00  5.653561559E-03
6.105466203E+00  2.139951706E+00
6.112041827E+00  2.786441088E+00
6.118617450E+00  3.880862474E+00
6.125193073E+00  2.796390057E+00
6.131768696E+00  2.298907042E+00
6.138344320E+00  1.279440880E+00
6.144919943E+00  7.180626988E-01
6.151495566E+00  -4.573255181E-01
6.158071190E+00  2.576478124E-01
6.164646813E+00  1.814966798E+00
6.171222436E+00  3.507602453E+00
6.177798059E+00  4.752349377E+00
6.184373683E+00  6.000466824E+00
6.190949306E+00  6.314252853E+00
6.197524929E+00  5.265039444E+00
6.204100552E+00  3.696936369E+00
6.210676176E+00  2.724568605E+00
6.217251799E+00  2.177199602E+00
6.223827422E+00  2.101754189E+00
6.230403045E+00  3.012163162E+00
6.236978669E+00  3.818047762E+00
6.243554292E+00  5.206828594E+00
6.250129915E+00  5.799495697E+00
6.256705539E+00  6.297512054E+00
6.263281162E+00  7.060753822E+00
6.269856785E+00  6.579366207E+00
6.276432408E+00  5.429615974E+00
6.283008032E+00  5.409081936E+00
6.289583655E+00  5.231811047E+00
6.296159278E+00  5.204134941E+00
6.302734901E+00  5.092596531E+00
6.309310525E+00  4.935975552E+00
6.315886148E+00  4.695471764E+00
6.322461771E+00  4.817535400E+00
6.329037394E+00  6.282342434E+00
6.335613018E+00  6.807603359E+00
6.342188641E+00  7.579527378E+00
6.348764264E+00  7.170353413E+00
6.355339888E+00  7.168324947E+00
6.361915511E+00  6.920475960E+00
6.368491134E+00  6.946086884E+00
6.375066757E+00  5.237097263E+00
6.381642381E+00  4.788245678E+00
6.388218004E+00  5.871327877E+00
6.394793627E+00  7.363141537E+00
6.401369250E+00  9.762855530E+00
6.407944874E+00  1.128430080E+01
6.414520497E+00  1.179906845E+01
6.421096120E+00  1.224857426E+01
6.427671743E+00  1.146993542E+01
6.434247367E+00  1.082626915E+01
6.440822990E+00  1.079695415E+01
6.447398613E+00  1.145046234E+01
6.453974237E+00  1.233272362E+01
6.460549860E+00  1.272341919E+01
6.467125483E+00  1.320943260E+01
6.473701106E+00  1.251685619E+01
6.480276730E+00  1.180932236E+01
6.486852353E+00  1.155105114E+01
6.493427976E+00  1.104934788E+01
6.500003599E+00  1.146171856E+01
6.506579223E+00  1.094141293E+01
6.513154846E+00  9.956806183E+00
6.519730469E+00  8.333190918E+00
6.526306092E+00  8.410534859E+00
6.532881716E+00  7.544252396E+00
6.539457339E+00  7.630628109E+00
6.546032962E+00  7.982570171E+00
6.552608586E+00  7.921914101E+00
6.559184209E+00  7.699346542E+00
6.565759832E+00  7.513935566E+00
6.572335455E+00  7.361751080E+00
6.578911079E+00  6.207231045E+00
6.585486702E+00  4.385015488E+00
6.592062325E+00  2.221741676E+00
6.598637948E+00  2.436408043E+00
6.605213572E+00  5.129844189E+00
6.611789195E+00  7.009537697E+00
6.618364818E+00  7.290243149E+00
6.624940441E+00  7.537223816E+00
6.631516065E+00  6.811256409E+00
6.638091688E+00  6.603435040E+00
6.644667311E+00  5.581751347E+00
6.651242935E+00  5.964141846E+00
6.657818558E+00  6.440128803E+00
6.664394181E+00  6.602959633E+00
6.670969804E+00  6.963052750E+00
6.677545428E+00  7.715349674E+00
6.684121051E+00  8.476640701E+00
6.690696674E+00  8.783143997E+00
6.697272297E+00  7.485304356E+00
6.703847921E+00  6.950689316E+00
6.710423544E+00  6.112105370E+00
6.716999167E+00  6.081133366E+00
6.723574790E+00  5.369332314E+00
6.730150414E+00  5.401427746E+00
6.736726037E+00  6.249200344E+00
6.743301660E+00  5.517958164E+00
6.749877284E+00  5.901950836E+00
6.756452907E+00  6.545687675E+00
6.763028530E+00  8.564189911E+00
6.769604153E+00  8.743171692E+00
6.776179777E+00  8.086145401E+00
6.782755400E+00  6.660836220E+00
6.789331023E+00  5.863820553E+00
6.795906646E+00  6.253759861E+00
6.802482270E+00  6.443231583E+00
6.809057893E+00  7.208827972E+00
6.815633516E+00  7.001397610E+00
6.822209139E+00  7.672116756E+00
6.828784763E+00  8.235665321E+00
6.835360386E+00  8.003043175E+00
6.841936009E+00  7.141870499E+00
6.848511633E+00  6.180304527E+00
6.855087256E+00  5.117638588E+00
6.861662879E+00  4.304441929E+00
6.868238502E+00  3.445985556E+00
6.874814126E+00  2.257532120E+00
6.881389749E+00  2.745595932E+00
6.887965372E+00  3.816600323E+00
6.894540995E+00  5.063266277E+00
6.901116619E+00  4.867407799E+00
6.907692242E+00  5.858194828E+00
6.914267865E+00  6.874807358E+00
6.920843488E+00  7.152722836E+00
6.927419112E+00  6.242175579E+00
6.933994735E+00  7.064313412E+00
6.940570358E+00  7.784486771E+00
6.947145982E+00  7.574943066E+00
6.953721605E+00  6.769848347E+00
6.960297228E+00  7.295216084E+00
6.966872851E+00  8.450634003E+00
6.973448475E+00  8.184401512E+00
6.980024098E+00  8.079602242E+00
6.986599721E+00  6.746184826E+00
6.993175344E+00  5.843651772E+00
6.999750968E+00  4.811275959E+00
7.006326591E+00  4.142501831E+00
7.012902214E+00  4.211840153E+00
7.019477837E+00  5.499711514E+00
7.026053461E+00  7.133453846E+00
7.032629084E+00  8.723743439E+00
7.039204707E+00  9.746914864E+00
7.045780331E+00  9.638706207E+00
7.052355954E+00  7.972484112E+00
7.058931577E+00  7.043716908E+00
7.065507200E+00  6.563580990E+00
7.072082824E+00  6.267120838E+00
7.078658447E+00  5.896897793E+00
7.085234070E+00  6.937861919E+00
7.091809693E+00  6.800222397E+00
7.098385317E+00  8.042356491E+00
7.104960940E+00  7.958712101E+00
7.111536563E+00  8.034652710E+00
7.118112186E+00  7.039969921E+00
7.124687810E+00  7.364593983E+00
7.131263433E+00  7.694376945E+00
7.137839056E+00  6.630980968E+00
7.144414680E+00  7.009752274E+00
7.150990303E+00  6.965159893E+00
7.157565926E+00  6.135390282E+00
7.164141549E+00  5.638669491E+00
7.170717173E+00  4.095724106E+00
7.177292796E+00  2.235010147E+00
7.183868419E+00  -3.646147251E-01
7.190444042E+00  -6.818516254E-01
7.197019666E+00  -2.651706040E-01
7.203595289E+00  1.658541560E+00
7.210170912E+00  2.443253517E+00
7.216746535E+00  3.715188026E+00
7.223322159E+00  3.260755539E+00
7.229897782E+00  1.976741433E+00
7.236473405E+00  1.856137156E+00
7.243049029E+00  1.194432497E+00
7.249624652E+00  1.111091137E+00
7.256200275E+00  1.007063866E+00
7.262775898E+00  1.914145708E+00
7.269351522E+00  2.795508385E+00
7.275927145E+00  3.115273237E+00
7.282502768E+00  2.643440485E+00
7.289078391E+00  2.562817335E+00
7.295654015E+00  3.059592724E+00
7.302229638E+00  3.106294870E+00
7.308805261E+00  2.985472202E+00
7.315380884E+00  3.346578360E+00
7.321956508E+00  3.625408411E+00
7.328532131E+00  3.677157164E+00
7.335107754E+00  2.306206703E+00
7.341683378E+00  1.991230130E+00
7.348259001E+00  9.296270013E-01
7.354834624E+00  -1.878118962E-01
7.361410247E+00  -2.127888799E-01
7.367985871E+00  2.788887173E-02
7.374561494E+00  1.649306655E+00
7.381137117E+00  2.323437929E+00
7.387712740E+00  2.693210840E+00
7.394288364E+00  2.118851900E+00
7.400863987E+00  1.812166691E+00
7.407439610E+00  1.004267812E+00
7.414015233E+00  5.908424258E-01
7.420590857E+00  2.739994526E-01
7.427166480E+00  7.828301750E-03
7.433742103E+00  -2.140024751E-01
7.440317727E+00  -6.747350842E-02
7.446893350E+00  5.505155325E-01
7.453468973E+00  -2.473004907E-02
7.460044596E+00  6.463686824E-01
7.466620220E+00  1.726802945E+00
7.473195843E+00  2.274604321E+00
7.479771466E+00  2.924482346E+00
7.486347089E+00  3.070194483E+00
7.492922713E+00  2.176554680E+00
7.499498336E+00  2.507456064E+00
7.506073959E+00  3.376356602E+00
7.512649582E+00  4.867465973E+00
7.519225206E+00  5.950488567E+00
7.525800829E+00  7.148833275E+00
7.532376452E+00  8.077696800E+00
7.538952076E+00  7.974820614E+00
7.545527699E+00  6.555715084E+00
7.552103322E+00  6.595444202E+00
7.558678945E+00  7.267491341E+00
7.565254569E+00  7.317829132E+00
7.571830192E+00  7.335429192E+00
7.578405815E+00  6.781555653E+00
7.584981438E+00  6.563986778E+00
7.591557062E+00  7.328762531E+00
7.598132685E+00  8.786357880E+00
7.604708308E+00  8.214612961E+00
7.611283931E+00  8.804438591E+00
7.617859555E+00  8.496245384E+00
7.624435178E+00  8.167931557E+00
7.631010801E+00  6.160277367E+00
7.637586425E+00  6.034271240E+00
7.644162048E+00  5.597966671E+00
7.650737671E+00  6.692132950E+00
7.657313294E+00  5.963201046E+00
7.663888918E+00  5.774890900E+00
7.670464541E+00  5.890829563E+00
7.677040164E+00  6.310978413E+00
7.683615787E+00  5.875149727E+00
7.690191411E+00  4.755197525E+00
7.696767034E+00  4.182554722E+00
7.703342657E+00  4.356927872E+00
7.709918281E+00  5.601570129E+00
7.716493904E+00  7.310057163E+00
7.723069527E+00  7.689453602E+00
7.729645150E+00  8.838924408E+00
7.736220774E+00  9.774637222E+00
7.742796397E+00  1.129889965E+01
7.749372020E+00  1.381608105E+01
7.755947643E+00  1.443514538E+01
7.762523267E+00  1.562004185E+01
7.769098890E+00  1.683814430E+01
7.775674513E+00  1.758514595E+01
7.782250136E+00  1.911162758E+01
7.788825760E+00  2.068476486E+01
7.795401383E+00  2.203413963E+01
7.801977006E+00  2.423014641E+01
7.808552630E+00  2.779971886E+01
7.815128253E+00  3.055396461E+01
7.821703876E+00  3.333181763E+01
7.828279499E+00  3.445999146E+01
7.834855123E+00  3.698394775E+01
7.841430746E+00  4.045889664E+01
7.848006369E+00  4.452647781E+01
7.854581992E+00  4.843767929E+01
7.861157616E+00  5.350257874E+01
7.867733239E+00  5.934910202E+01
7.874308862E+00  6.574482727E+01
7.880884485E+00  7.155448151E+01
7.887460109E+00  7.800412750E+01
7.894035732E+00  8.555954742E+01
7.900611355E+00  9.412452698E+01
7.907186979E+00  1.047698288E+02
7.913762602E+00  1.174705124E+02
7.920338225E+00  1.331147308E+02
7.926913848E+00  1.491780243E+02
7.933489472E+00  1.684142609E+02
7.940065095E+00  1.911808167E+02
7.946640718E+00  2.182335358E+02
7.953216341E+00  2.480523682E+02
7.959791965E+00  2.833296814E+02
7.966367588E+00  3.244516296E+02
7.972943211E+00  3.733992310E+02
7.979518834E+00  4.270469666E+02
7.986094458E+00  4.830325012E+02
7.992670081E+00  5.428651733E+02
7.999245704E+00  5.970615234E+02
8.005821328E+00  6.502295532E+02
8.012396951E+00  6.885924072E+02
8.018972574E+00  7.247868042E+02
8.025548197E+00  7.346531372E+02
8.032123821E+00  7.266665649E+02
8.038699444E+00  7.132977905E+02
8.045275067E+00  6.913828735E+02
8.051850690E+00  6.703040771E+02
8.058426314E+00  6.443164062E+02
8.065001937E+00  6.056918945E+02
8.071577560E+00  5.688905029E+02
8.078153183E+00  5.140592651E+02
8.084728807E+00  4.686918945E+02
8.091304430E+00  4.186580505E+02
8.097880053E+00  3.865778809E+02
8.104455677E+00  3.497297363E+02
8.111031300E+00  3.220516357E+02
8.117606923E+00  2.914947815E+02
8.124182546E+00  2.644785767E+02
8.130758170E+00  2.383810120E+02
8.137333793E+00  2.185301666E+02
8.143909416E+00  2.009934540E+02
8.150485039E+00  1.850008087E+02
8.157060663E+00  1.707661133E+02
8.163636286E+00  1.569367676E+02
8.170211909E+00  1.452271271E+02
8.176787532E+00  1.338129272E+02
8.183363156E+00  1.227532043E+02
8.189938779E+00  1.138179474E+02
8.196514402E+00  1.056130600E+02
8.203090026E+00  9.741780853E+01
8.209665649E+00  9.120283508E+01
8.216241272E+00  8.562971497E+01
8.222816895E+00  8.084928894E+01
8.229392519E+00  7.726580811E+01
8.235968142E+00  7.355207825E+01
8.242543765E+00  6.915093994E+01
8.249119388E+00  6.636800385E+01
8.255695012E+00  6.571155548E+01
8.262270635E+00  6.413078308E+01
8.268846258E+00  6.132781601E+01
8.275421881E+00  5.984022903E+01
8.281997505E+00  5.812357712E+01
8.288573128E+00  5.594641495E+01
8.295148751E+00  5.357827377E+01
8.301724375E+00  5.187218094E+01
8.308299998E+00  4.974758530E+01
8.314875621E+00  4.661417007E+01
8.321451244E+00  4.298562622E+01
8.328026868E+00  4.016422653E+01
8.334602491E+00  3.745956421E+01
8.341178114E+00  3.489657593E+01
8.347753737E+00  3.211982346E+01
8.354329361E+00  2.925922585E+01
8.360904984E+00  2.711560249E+01
8.367480607E+00  2.450148582E+01
8.374056230E+00  2.275285149E+01
8.380631854E+00  2.139805603E+01
8.387207477E+00  1.872179794E+01
8.393783100E+00  1.613914871E+01
8.400358724E+00  1.451195526E+01
8.406934347E+00  1.358047581E+01
8.413509970E+00  1.339941978E+01
8.420085593E+00  1.327007580E+01
8.426661217E+00  1.245954609E+01
8.433236840E+00  1.119391632E+01
8.439812463E+00  1.000395393E+01
8.446388086E+00  8.018564224E+00
8.452963710E+00  6.631299019E+00
8.459539333E+00  6.417835236E+00
8.466114956E+00  8.593493462E+00
8.472690579E+00  1.118023014E+01
8.479266203E+00  1.197490311E+01
8.485841826E+00  1.215668964E+01
8.492417449E+00  1.206394672E+01
8.498993073E+00  1.226940155E+01
8.505568696E+00  1.204597950E+01
8.512144319E+00  1.177109337E+01
8.518719942E+00  1.244862270E+01
8.525295566E+00  1.386418819E+01
8.531871189E+00  1.447772408E+01
8.538446812E+00  1.531020451E+01
8.545022435E+00  1.541385651E+01
8.551598059E+00  1.515536022E+01
8.558173682E+00  1.487210655E+01
8.564749305E+00  1.445910454E+01
8.571324928E+00  1.556136799E+01
8.577900552E+00  1.640008736E+01
8.584476175E+00  1.665690994E+01
8.591051798E+00  1.634893417E+01
8.597627422E+00  1.553379059E+01
8.604203045E+00  1.400837708E+01
8.610778668E+00  1.272144699E+01
8.617354291E+00  1.084295464E+01
8.623929915E+00  9.777231216E+00
8.630505538E+00  9.531641006E+00
8.637081161E+00  8.948514938E+00
8.643656784E+00  8.287178040E+00
8.650232408E+00  7.566236973E+00
8.656808031E+00  6.279399395E+00
8.663383654E+00  6.103481770E+00
8.669959277E+00  5.550750256E+00
8.676534901E+00  5.612965584E+00
8.683110524E+00  5.779936314E+00
8.689686147E+00  5.230436325E+00
8.696261771E+00  3.270191908E+00
8.702837394E+00  2.473972082E+00
8.709413017E+00  3.573771000E+00
8.715988640E+00  4.241522789E+00
8.722564264E+00  4.595447540E+00
8.729139887E+00  4.158061028E+00
8.735715510E+00  4.569550514E+00
8.742291133E+00  4.489143848E+00
8.748866757E+00  4.485733509E+00
8.755442380E+00  5.375765800E+00
8.762018003E+00  7.292579174E+00
8.768593626E+00  7.928589821E+00
8.775169250E+00  8.724744797E+00
8.781744873E+00  9.973062515E+00
8.788320496E+00  1.127415085E+01
8.794896120E+00  1.316855621E+01
8.801471743E+00  1.414408779E+01
8.808047366E+00  1.360554409E+01
8.814622989E+00  1.300606155E+01
8.821198613E+00  1.298187828E+01
8.827774236E+00  1.370927143E+01
8.834349859E+00  1.344069099E+01
8.840925482E+00  1.278990936E+01
8.847501106E+00  1.434043026E+01
8.854076729E+00  1.566013050E+01
8.860652352E+00  1.794384193E+01
8.867227975E+00  1.945231438E+01
8.873803599E+00  1.985743332E+01
8.880379222E+00  1.923001289E+01
8.886954845E+00  1.948461914E+01
8.893530469E+00  2.092156219E+01
8.900106092E+00  2.320004463E+01
8.906681715E+00  2.506179047E+01
8.913257338E+00  2.676073265E+01
8.919832962E+00  2.816311836E+01
8.926408585E+00  2.894037056E+01
8.932984208E+00  3.108227539E+01
8.939559831E+00  3.224317551E+01
8.946135455E+00  3.394362640E+01
8.952711078E+00  3.606454086E+01
8.959286701E+00  4.003713226E+01
8.965862324E+00  4.259777832E+01
8.972437948E+00  4.444479370E+01
8.979013571E+00  4.674913406E+01
8.985589194E+00  4.975452423E+01
8.992164818E+00  5.388828278E+01
8.998740441E+00  5.707137299E+01
9.005316064E+00  5.973501968E+01
9.011891687E+00  6.122743988E+01
9.018467311E+00  6.200183105E+01
9.025042934E+00  6.355875778E+01
9.031618557E+00  6.420736694E+01
9.038194180E+00  6.596920776E+01
9.044769804E+00  6.617247772E+01
9.051345427E+00  6.759214783E+01
9.057921050E+00  6.849291992E+01
9.064496673E+00  7.007212067E+01
9.071072297E+00  6.943283081E+01
9.077647920E+00  6.961318970E+01
9.084223543E+00  6.830660248E+01
9.090799167E+00  6.719963837E+01
9.097374790E+00  6.607357788E+01
9.103950413E+00  6.627123260E+01
9.110526036E+00  6.728286743E+01
9.117101660E+00  6.975987244E+01
9.123677283E+00  7.069396210E+01
9.130252906E+00  7.075508881E+01
9.136828529E+00  7.069813538E+01
9.143404153E+00  7.082487488E+01
9.149979776E+00  7.044830322E+01
9.156555399E+00  7.341607666E+01
9.163131022E+00  7.610904694E+01
9.169706646E+00  8.172058868E+01
9.176282269E+00  8.702851105E+01
9.182857892E+00  9.548643494E+01
9.189433516E+00  1.056631927E+02
9.196009139E+00  1.191017609E+02
9.202584762E+00  1.365286865E+02
9.209160385E+00  1.592466888E+02
9.215736009E+00  1.864862366E+02
9.222311632E+00  2.187883606E+02
9.228887255E+00  2.583913269E+02
9.235462878E+00  3.048869019E+02
9.242038502E+00  3.572395020E+02
9.248614125E+00  4.090516052E+02
9.255189748E+00  4.543589478E+02
9.261765372E+00  4.845335083E+02
9.268340995E+00  4.995114136E+02
9.274916618E+00  4.980392456E+02
9.281492241E+00  4.998816528E+02
9.288067865E+00  4.813316345E+02
9.294643488E+00  4.847276001E+02
9.301219111E+00  4.528649902E+02
9.307794734E+00  4.750455933E+02
9.314370358E+00  4.403192139E+02
9.320945981E+00  4.419125366E+02
9.327521604E+00  4.076892700E+02
9.334097227E+00  3.220670166E+02
9.340672851E+00  2.504632416E+02
9.347248474E+00  2.075684357E+02
9.353824097E+00  1.685906525E+02
9.360399721E+00  1.527706604E+02
9.366975344E+00  1.352935486E+02
9.373550967E+00  1.248849411E+02
9.380126590E+00  1.142934265E+02
9.386702214E+00  1.066313324E+02
9.393277837E+00  1.002107086E+02
9.399853460E+00  9.606772614E+01
9.406429083E+00  9.364918518E+01
9.413004707E+00  9.345462799E+01
9.419580330E+00  9.423114014E+01
9.426155953E+00  9.529758453E+01
9.432731576E+00  9.976824188E+01
9.439307200E+00  1.052202606E+02
9.445882823E+00  1.115457458E+02
9.452458446E+00  1.187241745E+02
9.459034070E+00  1.275260620E+02
9.465609693E+00  1.351359558E+02
9.472185316E+00  1.415123596E+02
9.478760939E+00  1.467504425E+02
9.485336563E+00  1.508653412E+02
9.491912186E+00  1.553238068E+02
9.498487809E+00  1.595389099E+02
9.505063432E+00  1.642708588E+02
9.511639056E+00  1.668301849E+02
9.518214679E+00  1.657329407E+02
9.524790302E+00  1.625874786E+02
9.531365925E+00  1.587712250E+02
9.537941549E+00  1.525834198E+02
9.544517172E+00  1.468838959E+02
9.551092795E+00  1.418576813E+02
9.557668419E+00  1.367219849E+02
9.564244042E+00  1.311320496E+02
9.570819665E+00  1.258846970E+02
9.577395288E+00  1.201190567E+02
9.583970912E+00  1.148419189E+02
9.590546535E+00  1.089536285E+02
9.597122158E+00  1.023955612E+02
9.603697781E+00  9.626143646E+01
9.610273405E+00  8.787298584E+01
9.616849028E+00  8.002560425E+01
9.623424651E+00  7.283986664E+01
9.630000274E+00  6.737581635E+01
9.636575898E+00  6.234680176E+01
9.643151521E+00  5.758485413E+01
9.649727144E+00  5.179161453E+01
9.656302768E+00  4.684207535E+01
9.662878391E+00  4.381485367E+01
9.669454014E+00  4.265232086E+01
9.676029637E+00  4.025683212E+01
9.682605261E+00  3.767916489E+01
9.689180884E+00  3.553407669E+01
9.695756507E+00  3.447001266E+01
9.702332130E+00  3.289762497E+01
9.708907754E+00  3.193997383E+01
9.715483377E+00  3.122646332E+01
9.722059000E+00  3.055300522E+01
9.728634623E+00  2.811150360E+01
9.735210247E+00  2.634093666E+01
9.741785870E+00  2.421396637E+01
9.748361493E+00  2.418323898E+01
9.754937117E+00  2.586155128E+01
9.761512740E+00  2.771179962E+01
9.768088363E+00  2.790927315E+01
9.774663986E+00  2.860436249E+01
9.781239610E+00  3.030731392E+01
9.787815233E+00  3.204154968E+01
9.794390856E+00  3.344231415E+01
9.800966479E+00  3.619464493E+01
9.807542103E+00  3.939031219E+01
9.814117726E+00  4.382079315E+01
9.820693349E+00  4.758664322E+01
9.827268972E+00  5.055451584E+01
9.833844596E+00  5.423999786E+01
9.840420219E+00  5.922946930E+01
9.846995842E+00  6.518742371E+01
9.853571466E+00  7.041850281E+01
9.860147089E+00  7.730007935E+01
9.866722712E+00  8.433990479E+01
9.873298335E+00  9.126985168E+01
9.879873959E+00  9.909375000E+01
9.886449582E+00  1.070317459E+02
9.893025205E+00  1.138454895E+02
9.899600828E+00  1.199015961E+02
9.906176452E+00  1.256755905E+02
9.912752075E+00  1.308778229E+02
9.919327698E+00  1.360546265E+02
9.925903321E+00  1.409153900E+02
9.932478945E+00  1.456026306E+02
9.939054568E+00  1.484804993E+02
9.945630191E+00  1.499771881E+02
9.952205815E+00  1.499202423E+02
9.958781438E+00  1.494350891E+02
9.965357061E+00  1.478693237E+02
9.971932684E+00  1.456081543E+02
9.978508308E+00  1.426974030E+02
9.985083931E+00  1.381985626E+02
9.991659554E+00  1.329255524E+02
9.998235177E+00  1.278709946E+02
1.000481080E+01  1.208600693E+02
1.001138642E+01  1.128097153E+02
1.001796205E+01  1.050504913E+02
1.002453767E+01  9.709896851E+01
1.003111329E+01  9.024663544E+01
1.003768892E+01  8.266096497E+01
1.004426454E+01  7.602163696E+01
1.005084016E+01  7.048586273E+01
1.005741579E+01  6.508978271E+01
1.006399141E+01  5.959169769E+01
1.007056703E+01  5.421719742E+01
1.007714266E+01  5.131345367E+01
1.008371828E+01  4.848692703E+01
1.009029390E+01  4.691047668E+01
1.009686953E+01  4.295178223E+01
1.010344515E+01  3.910988235E+01
1.011002077E+01  3.561036682E+01
1.011659640E+01  3.454895401E+01
1.012317202E+01  3.313609314E+01
1.012974764E+01  3.160323143E+01
1.013632327E+01  3.097088242E+01
1.014289889E+01  3.050661850E+01
1.014947451E+01  2.935350037E+01
1.015605014E+01  2.778739548E+01
1.016262576E+01  2.777899170E+01
1.016920138E+01  2.984828758E+01
1.017577701E+01  3.112367249E+01
1.018235263E+01  3.104994392E+01
1.018892825E+01  2.909434700E+01
1.019550388E+01  2.837109566E+01
1.020207950E+01  2.692701721E+01
1.020865512E+01  2.547348022E+01
1.021523075E+01  2.429802513E+01
1.022180637E+01  2.330439377E+01
1.022838199E+01  2.312434769E+01
1.023495762E+01  2.443457222E+01
1.024153324E+01  2.650549126E+01
1.024810886E+01  2.643760681E+01
1.025468448E+01  2.729821014E+01
1.026126011E+01  2.796172523E+01
1.026783573E+01  2.783576775E+01
1.027441135E+01  2.829280090E+01
1.028098698E+01  2.960762787E+01
1.028756260E+01  3.002526855E+01
1.029413822E+01  2.970138359E+01
1.030071385E+01  2.811878586E+01
1.030728947E+01  2.641165543E+01
1.031386509E+01  2.550665665E+01
1.032044072E+01  2.478211403E+01
1.032701634E+01  2.349526215E+01
1.033359196E+01  2.240529823E+01
1.034016759E+01  2.103313446E+01
1.034674321E+01  2.115457916E+01
1.035331883E+01  1.915725708E+01
1.035989446E+01  1.877060127E+01
1.036647008E+01  1.817424202E+01
1.037304570E+01  1.777438354E+01
1.037962133E+01  1.566327095E+01
1.038619695E+01  1.597710133E+01
1.039277257E+01  1.471487427E+01
1.039934820E+01  1.312168980E+01
1.040592382E+01  1.216482449E+01
1.041249944E+01  1.072123051E+01
1.041907507E+01  9.034076691E+00
1.042565069E+01  8.624374390E+00
1.043222631E+01  9.201128006E+00
1.043880194E+01  8.878131866E+00
1.044537756E+01  9.401514053E+00
1.045195318E+01  1.097052956E+01
1.045852881E+01  9.988540649E+00
1.046510443E+01  7.446315765E+00
1.047168005E+01  5.976226807E+00
1.047825568E+01  5.951859951E+00
1.048483130E+01  7.489965439E+00
1.049140692E+01  8.932879448E+00
1.049798255E+01  1.040565300E+01
1.050455817E+01  9.870736122E+00
1.051113379E+01  1.053569508E+01
1.051770942E+01  9.794611931E+00
1.052428504E+01  1.080768204E+01
1.053086066E+01  9.312726974E+00
1.053743629E+01  1.043281746E+01
1.054401191E+01  1.018310547E+01
1.055058753E+01  1.104406643E+01
1.055716316E+01  1.016218090E+01
1.056373878E+01  9.019368172E+00
1.057031440E+01  8.429570198E+00
1.057689002E+01  7.414231777E+00
1.058346565E+01  6.812172413E+00
1.059004127E+01  7.057899475E+00
1.059661689E+01  7.681122780E+00
1.060319252E+01  8.038198471E+00
1.060976814E+01  7.113886833E+00
1.061634376E+01  4.952017307E+00
1.062291939E+01  2.998748302E+00
1.062949501E+01  3.068877935E+00
1.063607063E+01  3.448869944E+00
1.064264626E+01  4.926153183E+00
1.064922188E+01  6.030818462E+00
1.065579750E+01  7.555641174E+00
1.066237313E+01  7.452565670E+00
1.066894875E+01  7.095888615E+00
1.067552437E+01  6.863316059E+00
1.068210000E+01  6.230202198E+00
1.068867562E+01  4.328144073E+00
1.069525124E+01  4.474767685E+00
1.070182687E+01  4.840722084E+00
1.070840249E+01  7.281222820E+00
1.071497811E+01  7.976679325E+00
1.072155374E+01  8.196855545E+00
1.072812936E+01  7.020109177E+00
1.073470498E+01  7.663473606E+00
1.074128061E+01  6.729238987E+00
1.074785623E+01  5.116574764E+00
1.075443185E+01  3.987352848E+00
1.076100748E+01  4.624547005E+00
1.076758310E+01  5.031354427E+00
1.077415872E+01  4.312057018E+00
1.078073435E+01  2.103176117E+00
1.078730997E+01  1.731855609E-02
1.079388559E+01  -4.486164153E-01
1.080046122E+01  7.435556501E-02
1.080703684E+01  5.841410160E-01
1.081361246E+01  5.439954400E-01
1.082018809E+01  5.832073689E-01
1.082676371E+01  -2.865922451E-01
1.083333933E+01  -8.086365461E-01
1.083991496E+01  -5.767256021E-01
1.084649058E+01  1.251883149E+00
1.085306620E+01  3.304131746E+00
1.085964183E+01  4.192332745E+00
1.086621745E+01  4.951670170E+00
1.087279307E+01  4.131995201E+00
1.087936870E+01  2.638158083E+00
1.088594432E+01  3.515907824E-01
1.089251994E+01  -6.309259534E-01
1.089909556E+01  -4.938438833E-01
1.090567119E+01  1.454377890E+00
1.091224681E+01  2.185081005E+00
1.091882243E+01  3.218937397E+00
1.092539806E+01  3.891574144E+00
1.093197368E+01  4.489314079E+00
1.093854930E+01  5.039213181E+00
1.094512493E+01  5.095192909E+00
1.095170055E+01  5.643312454E+00
1.095827617E+01  6.870321274E+00
1.096485180E+01  6.994223595E+00
1.097142742E+01  7.333127499E+00
1.097800304E+01  5.803774834E+00
1.098457867E+01  5.525547028E+00
1.099115429E+01  6.409329414E+00
1.099772991E+01  7.587197304E+00
1.100430554E+01  7.930480480E+00
1.101088116E+01  7.747030258E+00
1.101745678E+01  8.630824089E+00
1.102403241E+01  9.275443077E+00
1.103060803E+01  9.605907440E+00
1.103718365E+01  9.317735672E+00
1.104375928E+01  9.072745323E+00
1.105033490E+01  9.167999268E+00
1.105691052E+01  8.069495201E+00
1.106348615E+01  8.021048546E+00
1.107006177E+01  7.897325516E+00
1.107663739E+01  8.681863785E+00
1.108321302E+01  8.652135849E+00
1.108978864E+01  9.377592087E+00
1.109636426E+01  9.534113884E+00
1.110293989E+01  9.592981339E+00
1.110951551E+01  9.446359634E+00
1.111609113E+01  9.503488541E+00
1.112266676E+01  8.912367821E+00
1.112924238E+01  9.325377464E+00
1.113581800E+01  8.534044266E+00
1.114239363E+01  7.773244381E+00
1.114896925E+01  8.417980194E+00
1.115554487E+01  8.798809052E+00
1.116212050E+01  8.933290482E+00
1.116869612E+01  1.033213902E+01
1.117527174E+01  1.122285843E+01
1.118184737E+01  1.145403862E+01
1.118842299E+01  1.206859970E+01
1.119499861E+01  1.297371292E+01
1.120157424E+01  1.328357792E+01
1.120814986E+01  1.276570988E+01
1.121472548E+01  1.207092094E+01
1.122130111E+01  1.282414532E+01
1.122787673E+01  1.335343838E+01
1.123445235E+01  1.490922070E+01
1.124102797E+01  1.572580051E+01
1.124760360E+01  1.574891186E+01
1.125417922E+01  1.587253475E+01
1.126075484E+01  1.570988941E+01
1.126733047E+01  1.603386879E+01
1.127390609E+01  1.502166653E+01
1.128048171E+01  1.412001228E+01
1.128705734E+01  1.329712677E+01
1.129363296E+01  1.405980873E+01
1.130020858E+01  1.392218876E+01
1.130678421E+01  1.438961411E+01
1.131335983E+01  1.500845432E+01
1.131993545E+01  1.576453876E+01
1.132651108E+01  1.602993393E+01
1.133308670E+01  1.536763287E+01
1.133966232E+01  1.427617836E+01
1.134623795E+01  1.392648697E+01
1.135281357E+01  1.405588531E+01
1.135938919E+01  1.509164810E+01
1.136596482E+01  1.731847954E+01
1.137254044E+01  1.897762871E+01
1.137911606E+01  1.855156326E+01
1.138569169E+01  1.767705345E+01
1.139226731E+01  1.853090858E+01
1.139884293E+01  1.927529526E+01
1.140541856E+01  2.099767876E+01
1.141199418E+01  2.182360840E+01
1.141856980E+01  2.313498306E+01
1.142514543E+01  2.289232254E+01
1.143172105E+01  2.140526009E+01
1.143829667E+01  2.083646011E+01
1.144487230E+01  2.095943069E+01
1.145144792E+01  2.070294571E+01
1.145802354E+01  1.993621063E+01
1.146459917E+01  1.961436844E+01
1.147117479E+01  1.870378304E+01
1.147775041E+01  1.626994514E+01
1.148432604E+01  1.558537006E+01
1.149090166E+01  1.616475487E+01
1.149747728E+01  1.834017944E+01
1.150405291E+01  1.804332733E+01
1.151062853E+01  1.753937149E+01
1.151720415E+01  1.732981300E+01
1.152377978E+01  1.701428986E+01
1.153035540E+01  1.604106903E+01
1.153693102E+01  1.476124382E+01
1.154350665E+01  1.527004719E+01
1.155008227E+01  1.600938225E+01
1.155665789E+01  1.553199100E+01
1.156323351E+01  1.556834507E+01
1.156980914E+01  1.488797188E+01
1.157638476E+01  1.333559418E+01
1.158296038E+01  1.236725712E+01
1.158953601E+01  1.121683407E+01
1.159611163E+01  1.070267105E+01
1.160268725E+01  1.104740524E+01
1.160926288E+01  1.241361523E+01
1.161583850E+01  1.302881813E+01
1.162241412E+01  1.131779575E+01
1.162898975E+01  1.067652130E+01
1.163556537E+01  1.070946217E+01
1.164214099E+01  1.138729763E+01
1.164871662E+01  1.275053215E+01
1.165529224E+01  1.333332062E+01
1.166186786E+01  1.507118893E+01
1.166844349E+01  1.532935143E+01
1.167501911E+01  1.391589642E+01
1.168159473E+01  1.188646984E+01
1.168817036E+01  1.197641087E+01
1.169474598E+01  1.116520214E+01
1.170132160E+01  1.034638882E+01
1.170789723E+01  1.099799538E+01
1.171447285E+01  1.262050819E+01
1.172104847E+01  1.311529922E+01
1.172762410E+01  1.205170918E+01
1.173419972E+01  1.136383057E+01
1.174077534E+01  1.167570210E+01
1.174735097E+01  1.161575794E+01
1.175392659E+01  1.096624660E+01
1.176050221E+01  1.007533836E+01
1.176707784E+01  8.854193687E+00
1.177365346E+01  7.878529549E+00
1.178022908E+01  8.154239655E+00
1.178680471E+01  1.061983776E+01
1.179338033E+01  1.224069786E+01
1.179995595E+01  1.122535801E+01
1.180653158E+01  1.099915791E+01
1.181310720E+01  8.842905045E+00
1.181968282E+01  7.655086517E+00
1.182625845E+01  7.925985813E+00
1.183283407E+01  8.770888329E+00
1.183940969E+01  1.050234413E+01
1.184598532E+01  1.147880459E+01
1.185256094E+01  1.201086712E+01
1.185913656E+01  1.231879616E+01
1.186571219E+01  1.228691959E+01
1.187228781E+01  1.317358685E+01
1.187886343E+01  1.318294716E+01
1.188543906E+01  1.173252583E+01
1.189201468E+01  1.165927982E+01
1.189859030E+01  1.196227551E+01
1.190516592E+01  1.121430492E+01
1.191174155E+01  1.011315918E+01
1.191831717E+01  1.012420273E+01
1.192489279E+01  1.161563110E+01
1.193146842E+01  1.173053837E+01
1.193804404E+01  1.104951668E+01
1.194461966E+01  1.014631844E+01
1.195119529E+01  1.038229084E+01
1.195777091E+01  9.032351494E+00
1.196434653E+01  9.244951248E+00
1.197092216E+01  1.016463280E+01
1.197749778E+01  1.008730125E+01
1.198407340E+01  1.095388031E+01
1.199064903E+01  1.251534939E+01
1.199722465E+01  1.338938427E+01
1.200380027E+01  1.250811386E+01
1.201037590E+01  1.208784389E+01
1.201695152E+01  1.138833523E+01
1.202352714E+01  1.148770809E+01
1.203010277E+01  1.248116970E+01
1.203667839E+01  1.271197701E+01
1.204325401E+01  1.179633141E+01
1.204982964E+01  1.096274281E+01
1.205640526E+01  1.127712250E+01
1.206298088E+01  1.169795895E+01
1.206955651E+01  1.119106674E+01
1.207613213E+01  1.174423504E+01
1.208270775E+01  1.267386723E+01
1.208928338E+01  1.248044872E+01
1.209585900E+01  1.231925392E+01
1.210243462E+01  1.113461971E+01
1.210901025E+01  1.047879696E+01
1.211558587E+01  1.013841248E+01
1.212216149E+01  1.041621017E+01
1.212873712E+01  1.129999447E+01
1.213531274E+01  1.192063713E+01
1.214188836E+01  1.347200489E+01
1.214846399E+01  1.519727802E+01
1.215503961E+01  1.617900085E+01
1.216161523E+01  1.568819046E+01
1.216819086E+01  1.602419281E+01
1.217476648E+01  1.608254433E+01
1.218134210E+01  1.582567883E+01
1.218791773E+01  1.579025173E+01
1.219449335E+01  1.506370163E+01
1.220106897E+01  1.578571510E+01
1.220764460E+01  1.611844063E+01
1.221422022E+01  1.597158718E+01
1.222079584E+01  1.566257954E+01
1.222737146E+01  1.755767250E+01
1.223394709E+01  1.885417747E+01
1.224052271E+01  2.068250847E+01
1.224709833E+01  2.274192810E+01
1.225367396E+01  2.396803093E+01
1.226024958E+01  2.401906204E+01
1.226682520E+01  2.352885628E+01
1.227340083E+01  2.520106888E+01
1.227997645E+01  2.830478668E+01
1.228655207E+01  3.058809853E+01
1.229312770E+01  3.196803284E+01
1.229970332E+01  3.293388748E+01
1.230627894E+01  3.339390182E+01
1.231285457E+01  3.412936020E+01
1.231943019E+01  3.509195709E+01
1.232600581E+01  3.679929352E+01
1.233258144E+01  3.870404053E+01
1.233915706E+01  4.007086563E+01
1.234573268E+01  4.043348312E+01
1.235230831E+01  4.043937683E+01
1.235888393E+01  4.082977676E+01
1.236545955E+01  4.119355774E+01
1.237203518E+01  4.117136002E+01
1.237861080E+01  3.961377716E+01
1.238518642E+01  4.007843781E+01
1.239176205E+01  4.019229889E+01
1.239833767E+01  4.182010269E+01
1.240491329E+01  4.284076691E+01
1.241148892E+01  4.277918243E+01
1.241806454E+01  4.379550552E+01
1.242464016E+01  4.346541977E+01
1.243121579E+01  4.481333160E+01
1.243779141E+01  4.550231934E+01
1.244436703E+01  4.569839096E+01
1.245094266E+01  4.712419128E+01
1.245751828E+01  4.820013046E+01
1.246409390E+01  4.927922058E+01
1.247066953E+01  4.900305557E+01
1.247724515E+01  4.815580750E+01
1.248382077E+01  4.798161316E+01
1.249039640E+01  4.782518768E+01
1.249697202E+01  4.877099609E+01
1.250354764E+01  5.076630402E+01
1.251012327E+01  5.205133820E+01
1.251669889E+01  5.288000488E+01
1.252327451E+01  5.349351501E+01
1.252985014E+01  5.512086868E+01
1.253642576E+01  5.658726883E+01
1.254300138E+01  5.572865677E+01
1.254957700E+01  5.387511826E+01
1.255615263E+01  5.488212585E+01
1.256272825E+01  5.718670654E+01
1.256930387E+01  5.928691864E+01
1.257587950E+01  6.160074234E+01
1.258245512E+01  6.358424759E+01
1.258903074E+01  6.357778931E+01
1.259560637E+01  6.337093353E+01
1.260218199E+01  6.367561722E+01
1.260875761E+01  6.472380066E+01
1.261533324E+01  6.514977264E+01
1.262190886E+01  6.606538391E+01
1.262848448E+01  6.505708313E+01
1.263506011E+01  6.444618988E+01
1.264163573E+01  6.249151230E+01
1.264821135E+01  6.093917847E+01
1.265478698E+01  5.915688705E+01
1.266136260E+01  5.635950851E+01
1.266793822E+01  5.389277649E+01
1.267451385E+01  5.313952637E+01
1.268108947E+01  5.178191376E+01
1.268766509E+01  5.141127014E+01
1.269424072E+01  5.058230972E+01
1.270081634E+01  4.867493057E+01
1.270739196E+01  4.755146408E+01
1.271396759E+01  4.763185120E+01
1.272054321E+01  4.691268539E+01
1.272711883E+01  4.539007568E+01
1.273369446E+01  4.352595139E+01
1.274027008E+01  4.134131622E+01
1.274684570E+01  4.014379883E+01
1.275342133E+01  3.998076248E+01
1.275999695E+01  4.024430847E+01
1.276657257E+01  3.974985886E+01
1.277314820E+01  3.805991364E+01
1.277972382E+01  3.665933228E+01
1.278629944E+01  3.425660706E+01
1.279287507E+01  3.242741394E+01
1.279945069E+01  3.220542526E+01
1.280602631E+01  3.116289902E+01
1.281260194E+01  3.108399963E+01
1.281917756E+01  2.947798729E+01
1.282575318E+01  2.775157928E+01
1.283232881E+01  2.678024483E+01
1.283890443E+01  2.733886528E+01
1.284548005E+01  2.683073807E+01
1.285205568E+01  2.612498093E+01
1.285863130E+01  2.592908478E+01
1.286520692E+01  2.652769661E+01
1.287178255E+01  2.736024284E+01
1.287835817E+01  2.850628662E+01
1.288493379E+01  2.893260002E+01
1.289150941E+01  3.012304497E+01
1.289808504E+01  3.130025291E+01
1.290466066E+01  3.293685532E+01
1.291123628E+01  3.508507538E+01
1.291781191E+01  3.647926712E+01
1.292438753E+01  3.792751312E+01
1.293096315E+01  3.900059509E+01
1.293753878E+01  3.938013458E+01
1.294411440E+01  4.014521408E+01
1.295069002E+01  4.315471268E+01
1.295726565E+01  4.574796295E+01
1.296384127E+01  4.881021500E+01
1.297041689E+01  5.110219574E+01
1.297699252E+01  5.405456543E+01
1.298356814E+01  5.637922668E+01
1.299014376E+01  6.085840225E+01
1.299671939E+01  6.645547485E+01
1.300329501E+01  7.355715179E+01
1.300987063E+01  8.075376892E+01
1.301644626E+01  8.813859558E+01
1.302302188E+01  9.513936615E+01
1.302959750E+01  1.039162369E+02
1.303617313E+01  1.133100357E+02
1.304274875E+01  1.225815048E+02
1.304932437E+01  1.322121124E+02
1.305590000E+01  1.425241089E+02
1.306247562E+01  1.539770050E+02
1.306905124E+01  1.654692078E+02
1.307562687E+01  1.775202942E+02
1.308220249E+01  1.915482178E+02
1.308877811E+01  2.055446777E+02
1.309535374E+01  2.205468140E+02
1.310192936E+01  2.313768768E+02
1.310850498E+01  2.377692566E+02
1.311508061E+01  2.400598907E+02
1.312165623E+01  2.413820801E+02
1.312823185E+01  2.392465820E+02
1.313480748E+01  2.348662567E+02
1.314138310E+01  2.283173065E+02
1.314795872E+01  2.208443298E+02
1.315453435E+01  2.104214630E+02
1.316110997E+01  2.006477966E+02
1.316768559E+01  1.893748779E+02
1.317426122E+01  1.807296753E+02
1.318083684E+01  1.725041656E+02
1.318741246E+01  1.658579712E+02
1.319398809E+01  1.596739044E+02
1.320056371E+01  1.530027161E+02
1.320713933E+01  1.447560120E+02
1.321371495E+01  1.360812225E+02
1.322029058E+01  1.295877075E+02
1.322686620E+01  1.224746475E+02
1.323344182E+01  1.192073517E+02
1.324001745E+01  1.137638092E+02
1.324659307E+01  1.067035599E+02
1.325316869E+01  9.861837006E+01
1.325974432E+01  9.228311157E+01
1.326631994E+01  8.646189880E+01
1.327289556E+01  8.064054108E+01
1.327947119E+01  7.538493347E+01
1.328604681E+01  7.120576477E+01
1.329262243E+01  6.550291443E+01
1.329919806E+01  5.881247711E+01
1.330577368E+01  5.273891068E+01
1.331234930E+01  4.828657532E+01
1.331892493E+01  4.464977264E+01
1.332550055E+01  4.120982742E+01
1.333207617E+01  3.784707260E+01
1.333865180E+01  3.430122757E+01
1.334522742E+01  3.176904488E+01
1.335180304E+01  2.847413063E+01
1.335837867E+01  2.557124519E+01
1.336495429E+01  2.249933434E+01
1.337152991E+01  1.929499817E+01
1.337810554E+01  1.890597343E+01
1.338468116E+01  1.929903793E+01
1.339125678E+01  1.963092041E+01
1.339783241E+01  1.942943954E+01
1.340440803E+01  1.839087296E+01
1.341098365E+01  1.773103333E+01
1.341755928E+01  1.661153603E+01
1.342413490E+01  1.694546318E+01
1.343071052E+01  1.588320255E+01
1.343728615E+01  1.558148956E+01
1.344386177E+01  1.332694530E+01
1.345043739E+01  1.218890858E+01
1.345701302E+01  1.054189205E+01
1.346358864E+01  1.085757828E+01
1.347016426E+01  1.039866734E+01
1.347673989E+01  1.173156834E+01
1.348331551E+01  1.210433388E+01
1.348989113E+01  1.159362888E+01
1.349646676E+01  1.010033512E+01
1.350304238E+01  9.325631142E+00
1.350961800E+01  8.249987602E+00
1.351619363E+01  8.718624115E+00
1.352276925E+01  1.011093616E+01
1.352934487E+01  1.227995396E+01
1.353592050E+01  1.269735622E+01
1.354249612E+01  1.260581875E+01
1.354907174E+01  1.228219318E+01
1.355564736E+01  1.328800011E+01
1.356222299E+01  1.316473675E+01
1.356879861E+01  1.382987690E+01
1.357537423E+01  1.386446571E+01
1.358194986E+01  1.559466457E+01
1.358852548E+01  1.695356369E+01
1.359510110E+01  1.698802757E+01
1.360167673E+01  1.670438194E+01
1.360825235E+01  1.573884296E+01
1.361482797E+01  1.578572464E+01
1.362140360E+01  1.690311050E+01
1.362797922E+01  1.804556465E+01
1.363455484E+01  1.936736298E+01
1.364113047E+01  2.059747887E+01
1.364770609E+01  2.293559265E+01
1.365428171E+01  2.421956635E+01
1.366085734E+01  2.533804321E+01
1.366743296E+01  2.666452599E+01
1.367400858E+01  2.908374786E+01
1.368058421E+01  3.211716461E+01
1.368715983E+01  3.402401733E+01
1.369373545E+01  3.579450989E+01
1.370031108E+01  3.592324448E+01
1.370688670E+01  3.669778061E+01
1.371346232E+01  3.793205261E+01
1.372003795E+01  4.024957275E+01
1.372661357E+01  4.177627945E+01
1.373318919E+01  4.342621231E+01
1.373976482E+01  4.428918457E+01
1.374634044E+01  4.544916153E+01
1.375291606E+01  4.709849548E+01
1.375949169E+01  4.952281189E+01
1.376606731E+01  5.094767761E+01
1.377264293E+01  5.183547592E+01
1.377921856E+01  5.229605103E+01
1.378579418E+01  5.216728210E+01
1.379236980E+01  5.230657959E+01
1.379894543E+01  5.210015869E+01
1.380552105E+01  5.121451950E+01
1.381209667E+01  5.030053329E+01
1.381867230E+01  5.010966110E+01
1.382524792E+01  4.935430527E+01
1.383182354E+01  4.880545807E+01
1.383839917E+01  4.834446716E+01
1.384497479E+01  4.653872299E+01
1.385155041E+01  4.541703415E+01
1.385812604E+01  4.575479889E+01
1.386470166E+01  4.418239975E+01
1.387127728E+01  4.261927032E+01
1.387785290E+01  4.071385956E+01
1.388442853E+01  4.081041718E+01
1.389100415E+01  3.888990784E+01
1.389757977E+01  3.793769455E+01
1.390415540E+01  3.699333572E+01
1.391073102E+01  3.633955765E+01
1.391730664E+01  3.347832489E+01
1.392388227E+01  3.160348892E+01
1.393045789E+01  2.970920181E+01
1.393703351E+01  2.873980713E+01
1.394360914E+01  2.693896103E+01
1.395018476E+01  2.744241333E+01
1.395676038E+01  2.720377731E+01
1.396333601E+01  2.633926773E+01
1.396991163E+01  2.541626930E+01
1.397648725E+01  2.475948334E+01
1.398306288E+01  2.423414230E+01
1.398963850E+01  2.534170723E+01
1.399621412E+01  2.612709236E+01
1.400278975E+01  2.654292297E+01
1.400936537E+01  2.586604691E+01
1.401594099E+01  2.375904846E+01
1.402251662E+01  2.268480110E+01
1.402909224E+01  2.288840675E+01
1.403566786E+01  2.126926041E+01
1.404224349E+01  1.929023552E+01
1.404881911E+01  1.900306511E+01
1.405539473E+01  1.791944885E+01
1.406197036E+01  1.798955536E+01
1.406854598E+01  1.754978752E+01
1.407512160E+01  1.740187836E+01
1.408169723E+01  1.689589691E+01
1.408827285E+01  1.609626961E+01
1.409484847E+01  1.427543354E+01
1.410142410E+01  1.297681618E+01
1.410799972E+01  1.383515739E+01
1.411457534E+01  1.401107597E+01
1.412115097E+01  1.401333427E+01
1.412772659E+01  1.420518875E+01
1.413430221E+01  1.528925419E+01
1.414087784E+01  1.614636421E+01
1.414745346E+01  1.594349289E+01
1.415402908E+01  1.657368469E+01
1.416060471E+01  1.700665092E+01
1.416718033E+01  1.724090767E+01
1.417375595E+01  1.600153923E+01
1.418033158E+01  1.619771385E+01
1.418690720E+01  1.632111931E+01
1.419348282E+01  1.661588860E+01
1.420005844E+01  1.728416634E+01
1.420663407E+01  1.710378075E+01
1.421320969E+01  1.750978851E+01
1.421978531E+01  1.762181854E+01
1.422636094E+01  1.788030624E+01
1.423293656E+01  1.789121246E+01
1.423951218E+01  1.711255455E+01
1.424608781E+01  1.651992416E+01
1.425266343E+01  1.705620575E+01
1.425923905E+01  1.711496735E+01
1.426581468E+01  1.789983749E+01
1.427239030E+01  1.793817139E+01
1.427896592E+01  1.676612282E+01
1.428554155E+01  1.585685253E+01
1.429211717E+01  1.698186302E+01
1.429869279E+01  1.750006104E+01
1.430526842E+01  1.846957016E+01
1.431184404E+01  1.738064575E+01
1.431841966E+01  1.708682251E+01
1.432499529E+01  1.670237732E+01
1.433157091E+01  1.597732830E+01
1.433814653E+01  1.488337421E+01
1.434472216E+01  1.605725098E+01
1.435129778E+01  1.555805492E+01
1.435787340E+01  1.515484524E+01
1.436444903E+01  1.354978466E+01
1.437102465E+01  1.315206337E+01
1.437760027E+01  1.219753265E+01
1.438417590E+01  1.257633686E+01
1.439075152E+01  1.108291721E+01
1.439732714E+01  1.038720036E+01
1.440390277E+01  1.089153385E+01
1.441047839E+01  1.210763645E+01
1.441705401E+01  1.329722786E+01
1.442362964E+01  1.286704350E+01
1.443020526E+01  1.231610298E+01
1.443678088E+01  1.171813011E+01
1.444335651E+01  1.204333305E+01
1.444993213E+01  1.250410461E+01
1.445650775E+01  1.370151043E+01
1.446308338E+01  1.328348732E+01
1.446965900E+01  1.370070744E+01
1.447623462E+01  1.477249241E+01
1.448281025E+01  1.476933765E+01
1.448938587E+01  1.497638512E+01
1.449596149E+01  1.386774158E+01
1.450253712E+01  1.330032539E+01
1.450911274E+01  1.223115635E+01
1.451568836E+01  1.162164497E+01
1.452226399E+01  1.151963139E+01
1.452883961E+01  1.260723305E+01
1.453541523E+01  1.317154789E+01
1.454199085E+01  1.410368061E+01
1.454856648E+01  1.459112358E+01
1.455514210E+01  1.419734859E+01
1.456171772E+01  1.356004620E+01
1.456829335E+01  1.222267246E+01
1.457486897E+01  1.145866489E+01
1.458144459E+01  1.110347652E+01
1.458802022E+01  1.111414337E+01
1.459459584E+01  1.119282150E+01
1.460117146E+01  1.063297939E+01
1.460774709E+01  9.460997581E+00
1.461432271E+01  8.612925529E+00
1.462089833E+01  9.170812607E+00
1.462747396E+01  9.404211998E+00
1.463404958E+01  1.038834190E+01
1.464062520E+01  1.021014214E+01
1.464720083E+01  9.663096428E+00
1.465377645E+01  9.161787033E+00
1.466035207E+01  8.976263046E+00
1.466692770E+01  9.417595863E+00
1.467350332E+01  9.139139175E+00
1.468007894E+01  8.474913597E+00
1.468665457E+01  8.366852760E+00
1.469323019E+01  7.858451843E+00
1.469980581E+01  8.374066353E+00
1.470638144E+01  9.522623062E+00
1.471295706E+01  9.461387634E+00
1.471953268E+01  1.011960030E+01
1.472610831E+01  9.432359695E+00
1.473268393E+01  1.069755459E+01
1.473925955E+01  1.025653458E+01
1.474583518E+01  9.620565414E+00
1.475241080E+01  8.807751656E+00
1.475898642E+01  8.545178413E+00
1.476556205E+01  6.843132496E+00
1.477213767E+01  6.333971024E+00
1.477871329E+01  7.091942310E+00
1.478528892E+01  8.640512466E+00
1.479186454E+01  8.930878639E+00
1.479844016E+01  9.266776085E+00
1.480501579E+01  9.256627083E+00
1.481159141E+01  9.573788643E+00
1.481816703E+01  9.421404839E+00
1.482474266E+01  9.207695007E+00
1.483131828E+01  1.030669594E+01
1.483789390E+01  1.055972767E+01
1.484446953E+01  1.102539444E+01
1.485104515E+01  1.130282497E+01
1.485762077E+01  1.092132473E+01
1.486419639E+01  9.392615318E+00
1.487077202E+01  9.497952461E+00
1.487734764E+01  8.636754036E+00
1.488392326E+01  8.829529762E+00
1.489049889E+01  1.017051983E+01
1.489707451E+01  1.127789021E+01
1.490365013E+01  1.154080391E+01
1.491022576E+01  9.381624222E+00
1.491680138E+01  7.616274357E+00
1.492337700E+01  7.726688862E+00
1.492995263E+01  8.507795334E+00
1.493652825E+01  9.024051666E+00
1.494310387E+01  8.593823433E+00
1.494967950E+01  7.697588444E+00
1.495625512E+01  6.987213135E+00
1.496283074E+01  8.500794411E+00
1.496940637E+01  1.039313221E+01
1.497598199E+01  1.081658745E+01
1.498255761E+01  9.350769043E+00
1.498913324E+01  8.989837646E+00
1.499570886E+01  1.008782291E+01
1.500228448E+01  9.448461533E+00
1.500886011E+01  9.453618050E+00
1.501543573E+01  8.655082703E+00
1.502201135E+01  8.361483574E+00
1.502858698E+01  8.514262199E+00
1.503516260E+01  9.284357071E+00
1.504173822E+01  1.122356606E+01
1.504831385E+01  1.244521427E+01
1.505488947E+01  1.357873917E+01
1.506146509E+01  1.415250969E+01
1.506804072E+01  1.461481380E+01
1.507461634E+01  1.581628704E+01
1.508119196E+01  1.640834618E+01
1.508776759E+01  1.623235130E+01
1.509434321E+01  1.620632172E+01
1.510091883E+01  1.693626404E+01
1.510749446E+01  1.813902473E+01
1.511407008E+01  1.734395409E+01
1.512064570E+01  1.730793571E+01
1.512722133E+01  1.824537468E+01
1.513379695E+01  1.998639297E+01
1.514037257E+01  1.986990738E+01
1.514694820E+01  2.104781532E+01
1.515352382E+01  2.426478577E+01
1.516009944E+01  2.755553055E+01
1.516667507E+01  2.893033600E+01
1.517325069E+01  3.013972855E+01
1.517982631E+01  3.139223480E+01
1.518640194E+01  3.377675247E+01
1.519297756E+01  3.502523804E+01
1.519955318E+01  3.691408920E+01
1.520612880E+01  3.925386810E+01
1.521270443E+01  4.197721100E+01
1.521928005E+01  4.523403168E+01
1.522585567E+01  4.860150146E+01
1.523243130E+01  5.185451889E+01
1.523900692E+01  5.585687256E+01
1.524558254E+01  5.956412888E+01
1.525215817E+01  6.374533463E+01
1.525873379E+01  6.971250153E+01
1.526530941E+01  7.675078583E+01
1.527188504E+01  8.364387512E+01
1.527846066E+01  9.178141785E+01
1.528503628E+01  9.952424622E+01
1.529161191E+01  1.080564423E+02
1.529818753E+01  1.168950882E+02
1.530476315E+01  1.267638092E+02
1.531133878E+01  1.388193512E+02
1.531791440E+01  1.511642303E+02
1.532449002E+01  1.644786377E+02
1.533106565E+01  1.794319916E+02
1.533764127E+01  1.971156006E+02
1.534421689E+01  2.158951874E+02
1.535079252E+01  2.355676422E+02
1.535736814E+01  2.562970276E+02
1.536394376E+01  2.746058044E+02
1.537051939E+01  2.904119568E+02
1.537709501E+01  3.053761292E+02
1.538367063E+01  3.187434692E+02
1.539024626E+01  3.279563599E+02
1.539682188E+01  3.315797729E+02
1.540339750E+01  3.277006531E+02
1.540997313E+01  3.218653870E+02
1.541654875E+01  3.149778137E+02
1.542312437E+01  3.075892639E+02
1.542970000E+01  2.982109680E+02
1.543627562E+01  2.866554565E+02
1.544285124E+01  2.763051147E+02
1.544942687E+01  2.652908325E+02
1.545600249E+01  2.535008087E+02
1.546257811E+01  2.411216125E+02
1.546915374E+01  2.296103210E+02
1.547572936E+01  2.189723511E+02
1.548230498E+01  2.078478699E+02
1.548888061E+01  1.968570251E+02
1.549545623E+01  1.864725342E+02
1.550203185E+01  1.761509552E+02
1.550860748E+01  1.672199860E+02
1.551518310E+01  1.598490753E+02
1.552175872E+01  1.541779022E+02
1.552833434E+01  1.479135437E+02
1.553490997E+01  1.404974365E+02
1.554148559E+01  1.344325256E+02
1.554806121E+01  1.288091736E+02
1.555463684E+01  1.224267120E+02
1.556121246E+01  1.164008865E+02
1.556778808E+01  1.095715485E+02
1.557436371E+01  1.035768967E+02
1.558093933E+01  9.919378662E+01
1.558751495E+01  9.534996796E+01
1.559409058E+01  9.106398773E+01
1.560066620E+01  8.674795532E+01
1.560724182E+01  8.256935120E+01
1.561381745E+01  7.893830872E+01
1.562039307E+01  7.596028900E+01
1.562696869E+01  7.389944458E+01
1.563354432E+01  7.181873322E+01
1.564011994E+01  6.849060822E+01
1.564669556E+01  6.454296875E+01
1.565327119E+01  6.028585815E+01
1.565984681E+01  5.667090607E+01
1.566642243E+01  5.368880844E+01
1.567299806E+01  5.191473770E+01
1.567957368E+01  5.075540161E+01
1.568614930E+01  5.008040237E+01
1.569272493E+01  4.822663116E+01
1.569930055E+01  4.641036606E+01
1.570587617E+01  4.460717010E+01
1.571245180E+01  4.212659454E+01
1.571902742E+01  3.970738220E+01
1.572560304E+01  3.731875229E+01
1.573217867E+01  3.580248642E+01
1.573875429E+01  3.668054199E+01
1.574532991E+01  3.649050522E+01
1.575190554E+01  3.549310684E+01
1.575848116E+01  3.355895233E+01
1.576505678E+01  3.295512009E+01
1.577163241E+01  3.310446930E+01
1.577820803E+01  3.453629303E+01
1.578478365E+01  3.671007919E+01
1.579135928E+01  3.814877701E+01
1.579793490E+01  3.858678055E+01
1.580451052E+01  3.722478485E+01
1.581108615E+01  3.652716446E+01
1.581766177E+01  3.469560242E+01
1.582423739E+01  3.246693039E+01
1.583081302E+01  3.045836639E+01
1.583738864E+01  2.782911110E+01
1.584396426E+01  2.540780449E+01
1.585053988E+01  2.458119583E+01
1.585711551E+01  2.470917130E+01
1.586369113E+01  2.311353874E+01
1.587026675E+01  2.235731125E+01
1.587684238E+01  2.105184555E+01
1.588341800E+01  2.064198875E+01
1.588999362E+01  1.968049812E+01
1.589656925E+01  1.942813873E+01
1.590314487E+01  1.960709763E+01
1.590972049E+01  1.998643303E+01
1.591629612E+01  1.981469345E+01
1.592287174E+01  1.985556221E+01
1.592944736E+01  2.019303131E+01
1.593602299E+01  2.219233704E+01
1.594259861E+01  2.421920204E+01
1.594917423E+01  2.445672607E+01
1.595574986E+01  2.555187607E+01
1.596232548E+01  2.765307617E+01
1.596890110E+01  2.987701035E+01
1.597547673E+01  3.056985092E+01
1.598205235E+01  3.120862389E+01
1.598862797E+01  3.147592163E+01
1.599520360E+01  3.319300079E+01
1.600177922E+01  3.425728989E+01
1.600835484E+01  3.682207870E+01
1.601493047E+01  3.853966522E+01
1.602150609E+01  4.050278473E+01
1.602808171E+01  4.281784439E+01
1.603465734E+01  4.591156006E+01
1.604123296E+01  4.804511261E+01
1.604780858E+01  4.971748734E+01
1.605438421E+01  5.101409149E+01
1.606095983E+01  5.331817245E+01
1.606753545E+01  5.428936768E+01
1.607411108E+01  5.664296341E+01
1.608068670E+01  5.897706604E+01
1.608726232E+01  6.253968811E+01
1.609383795E+01  6.429709625E+01
1.610041357E+01  6.441431427E+01
1.610698919E+01  6.439324951E+01
1.611356482E+01  6.476074982E+01
1.612014044E+01  6.431805420E+01
1.612671606E+01  6.197871780E+01
1.613329169E+01  6.038092041E+01
1.613986731E+01  5.862376785E+01
1.614644293E+01  5.775804138E+01
1.615301856E+01  5.668120193E+01
1.615959418E+01  5.657146835E+01
1.616616980E+01  5.549867630E+01
1.617274543E+01  5.409662628E+01
1.617932105E+01  5.439365005E+01
1.618589667E+01  5.309679413E+01
1.619247229E+01  5.228273773E+01
1.619904792E+01  5.097103500E+01
1.620562354E+01  4.845711517E+01
1.621219916E+01  4.525663376E+01
1.621877479E+01  4.303562164E+01
1.622535041E+01  4.040641785E+01
1.623192603E+01  3.954824066E+01
1.623850166E+01  4.012273788E+01
1.624507728E+01  4.038188171E+01
1.625165290E+01  3.893556213E+01
1.625822853E+01  3.668516159E+01
1.626480415E+01  3.623030472E+01
1.627137977E+01  3.578829575E+01
1.627795540E+01  3.483911896E+01
1.628453102E+01  3.372458267E+01
1.629110664E+01  3.305894089E+01
1.629768227E+01  3.335489273E+01
1.630425789E+01  3.294543839E+01
1.631083351E+01  3.207470322E+01
1.631740914E+01  3.148779297E+01
1.632398476E+01  2.985460663E+01
1.633056038E+01  2.817609596E+01
1.633713601E+01  2.758504486E+01
1.634371163E+01  2.738268852E+01
1.635028725E+01  2.654066849E+01
1.635686288E+01  2.592271042E+01
1.636343850E+01  2.562056923E+01
1.637001412E+01  2.655899811E+01
1.637658975E+01  2.706070137E+01
1.638316537E+01  2.683070374E+01
1.638974099E+01  2.782451630E+01
1.639631662E+01  2.959140015E+01
1.640289224E+01  3.129584885E+01
1.640946786E+01  3.266094971E+01
1.641604349E+01  3.406506729E+01
1.642261911E+01  3.368783188E+01
1.642919473E+01  3.323866653E+01
1.643577036E+01  3.388646317E+01
1.644234598E+01  3.445294952E+01
1.644892160E+01  3.536728287E+01
1.645549723E+01  3.606447983E+01
1.646207285E+01  3.733698654E+01
1.646864847E+01  3.740107346E+01
1.647522410E+01  3.865955353E+01
1.648179972E+01  3.955819702E+01
1.648837534E+01  4.118829727E+01
1.649495097E+01  4.109964371E+01
1.650152659E+01  4.111401367E+01
1.650810221E+01  4.111567307E+01
1.651467783E+01  4.112269592E+01
1.652125346E+01  4.098664856E+01
1.652782908E+01  4.256594086E+01
1.653440470E+01  4.337523651E+01
1.654098033E+01  4.338672638E+01
1.654755595E+01  4.143196869E+01
1.655413157E+01  4.200757217E+01
1.656070720E+01  4.298563385E+01
1.656728282E+01  4.431344604E+01
1.657385844E+01  4.560969162E+01
1.658043407E+01  4.592127228E+01
1.658700969E+01  4.514958572E+01
1.659358531E+01  4.469504547E+01
1.660016094E+01  4.505181885E+01
1.660673656E+01  4.560127640E+01
1.661331218E+01  4.646550751E+01
1.661988781E+01  4.850048447E+01
1.662646343E+01  4.944205856E+01
1.663303905E+01  4.969746399E+01
1.663961468E+01  4.956699753E+01
1.664619030E+01  4.881969452E+01
1.665276592E+01  4.956297302E+01
1.665934155E+01  5.211224365E+01
1.666591717E+01  5.416474915E+01
1.667249279E+01  5.400807190E+01
1.667906842E+01  5.343952942E+01
1.668564404E+01  5.168028641E+01
1.669221966E+01  5.079376984E+01
1.669879529E+01  5.124575806E+01
1.670537091E+01  5.208160019E+01
1.671194653E+01  5.169040680E+01
1.671852216E+01  5.057357788E+01
1.672509778E+01  5.052548599E+01
1.673167340E+01  5.175798416E+01
1.673824903E+01  5.202490234E+01
1.674482465E+01  5.129004669E+01
1.675140027E+01  5.044055557E+01
1.675797590E+01  4.957694244E+01
1.676455152E+01  4.827092743E+01
1.677112714E+01  4.720896530E+01
1.677770277E+01  4.710144806E+01
1.678427839E+01  4.681159210E+01
1.679085401E+01  4.536718750E+01
1.679742964E+01  4.455919647E+01
1.680400526E+01  4.525867081E+01
1.681058088E+01  4.393432617E+01
1.681715651E+01  4.203437424E+01
1.682373213E+01  4.086640549E+01
1.683030775E+01  4.061839676E+01
1.683688338E+01  3.976689529E+01
1.684345900E+01  3.798621368E+01
1.685003462E+01  3.685985565E+01
1.685661024E+01  3.629505157E+01
1.686318587E+01  3.477180481E+01
1.686976149E+01  3.438534546E+01
1.687633711E+01  3.422456741E+01
1.688291274E+01  3.373432541E+01
1.688948836E+01  3.252939987E+01
1.689606398E+01  2.955660820E+01
1.690263961E+01  2.892877960E+01
1.690921523E+01  2.803365135E+01
1.691579085E+01  2.726921463E+01
1.692236648E+01  2.577662277E+01
1.692894210E+01  2.500855255E+01
1.693551772E+01  2.461543465E+01
1.694209335E+01  2.449720192E+01
1.694866897E+01  2.374128914E+01
1.695524459E+01  2.268610001E+01
1.696182022E+01  2.175743866E+01
1.696839584E+01  2.185961533E+01
1.697497146E+01  2.254879189E+01
1.698154709E+01  2.180983162E+01
1.698812271E+01  2.011929131E+01
1.699469833E+01  1.858555603E+01
1.700127396E+01  1.825255203E+01
1.700784958E+01  1.807679176E+01
1.701442520E+01  1.711732483E+01
1.702100083E+01  1.669392776E+01
1.702757645E+01  1.589151669E+01
1.703415207E+01  1.613972282E+01
1.704072770E+01  1.553028011E+01
1.704730332E+01  1.471302795E+01
1.705387894E+01  1.431094265E+01
1.706045457E+01  1.369846249E+01
1.706703019E+01  1.328469467E+01
1.707360581E+01  1.245676899E+01
1.708018144E+01  1.139820480E+01
1.708675706E+01  1.149857521E+01
1.709333268E+01  1.201464462E+01
1.709990831E+01  1.224712563E+01
1.710648393E+01  1.249282742E+01
1.711305955E+01  1.309300041E+01
1.711963518E+01  1.257053852E+01
1.712621080E+01  1.165293598E+01
1.713278642E+01  1.139581776E+01
1.713936205E+01  1.061067486E+01
1.714593767E+01  8.904418945E+00
1.715251329E+01  7.613464355E+00
1.715908892E+01  8.337902069E+00
1.716566454E+01  8.942973137E+00
1.717224016E+01  1.033542919E+01
1.717881578E+01  1.085904312E+01
1.718539141E+01  1.030437279E+01
1.719196703E+01  1.073200321E+01
1.719854265E+01  1.065711784E+01
1.720511828E+01  1.012810707E+01
1.721169390E+01  9.212411880E+00
1.721826952E+01  8.963315010E+00
1.722484515E+01  9.017600060E+00
1.723142077E+01  7.274257660E+00
1.723799639E+01  6.656694412E+00
1.724457202E+01  6.630308628E+00
1.725114764E+01  6.995944023E+00
1.725772326E+01  8.166258812E+00
1.726429889E+01  9.353222847E+00
1.727087451E+01  9.707765579E+00
1.727745013E+01  9.996531487E+00
1.728402576E+01  1.098029804E+01
1.729060138E+01  1.153165245E+01
1.729717700E+01  9.811743736E+00
1.730375263E+01  9.713159561E+00
1.731032825E+01  9.784726143E+00
1.731690387E+01  1.018561077E+01
1.732347950E+01  1.012917042E+01
1.733005512E+01  1.066078281E+01
1.733663074E+01  1.088587570E+01
1.734320637E+01  1.211885071E+01
1.734978199E+01  1.346218872E+01
1.735635761E+01  1.204668140E+01
1.736293324E+01  1.061395645E+01
1.736950886E+01  9.130731583E+00
1.737608448E+01  8.533939362E+00
1.738266011E+01  8.377693176E+00
1.738923573E+01  9.014448166E+00
1.739581135E+01  9.662382126E+00
1.740238698E+01  1.020715714E+01
1.740896260E+01  1.130640793E+01
1.741553822E+01  1.038438129E+01
1.742211385E+01  9.526947021E+00
1.742868947E+01  8.373696327E+00
1.743526509E+01  8.882590294E+00
1.744184072E+01  1.008972263E+01
1.744841634E+01  1.028901291E+01
1.745499196E+01  1.000583553E+01
1.746156759E+01  1.049946785E+01
1.746814321E+01  1.053358936E+01
1.747471883E+01  1.040998268E+01
1.748129446E+01  1.044606495E+01
1.748787008E+01  1.093192291E+01
1.749444570E+01  1.108685207E+01
1.750102132E+01  1.143240643E+01
1.750759695E+01  1.125186539E+01
1.751417257E+01  1.048476982E+01
1.752074819E+01  1.065367031E+01
1.752732382E+01  1.128747368E+01
1.753389944E+01  1.188823128E+01
1.754047506E+01  1.113475418E+01
1.754705069E+01  1.263944626E+01
1.755362631E+01  1.369293308E+01
1.756020193E+01  1.394715977E+01
1.756677756E+01  1.382701778E+01
1.757335318E+01  1.417438126E+01
1.757992880E+01  1.394537163E+01
1.758650443E+01  1.300576782E+01
1.759308005E+01  1.290883636E+01
1.759965567E+01  1.275861168E+01
1.760623130E+01  1.298626041E+01
1.761280692E+01  1.244090748E+01
1.761938254E+01  1.314890480E+01
1.762595817E+01  1.416247272E+01
1.763253379E+01  1.433703709E+01
1.763910941E+01  1.417888927E+01
1.764568504E+01  1.323923397E+01
1.765226066E+01  1.353215027E+01
1.765883628E+01  1.463323593E+01
1.766541191E+01  1.619571495E+01
1.767198753E+01  1.675561905E+01
1.767856315E+01  1.693784523E+01
1.768513878E+01  1.700644875E+01
1.769171440E+01  1.663808250E+01
1.769829002E+01  1.672473717E+01
1.770486565E+01  1.868916893E+01
1.771144127E+01  1.922025681E+01
1.771801689E+01  1.920708656E+01
1.772459252E+01  1.850750542E+01
1.773116814E+01  1.738025284E+01
1.773774376E+01  1.824082565E+01
1.774431939E+01  1.761508179E+01
1.775089501E+01  1.648447037E+01
1.775747063E+01  1.704627800E+01
1.776404626E+01  1.800903320E+01
1.777062188E+01  1.960033607E+01
1.777719750E+01  2.140081978E+01
1.778377313E+01  2.275530243E+01
1.779034875E+01  2.271369171E+01
1.779692437E+01  2.146213531E+01
1.780350000E+01  2.188552666E+01
1.781007562E+01  2.348839378E+01
1.781665124E+01  2.386902237E+01
1.782322687E+01  2.397921181E+01
1.782980249E+01  2.437135124E+01
1.783637811E+01  2.415495491E+01
1.784295373E+01  2.360163689E+01
1.784952936E+01  2.311581612E+01
1.785610498E+01  2.176596451E+01
1.786268060E+01  2.204436684E+01
1.786925623E+01  2.286808968E+01
1.787583185E+01  2.208582878E+01
1.788240747E+01  2.181383514E+01
1.788898310E+01  2.302282906E+01
1.789555872E+01  2.446525002E+01
1.790213434E+01  2.414400101E+01
1.790870997E+01  2.323188591E+01
1.791528559E+01  2.279426575E+01
1.792186121E+01  2.258007812E+01
1.792843684E+01  2.317466545E+01
1.793501246E+01  2.387331963E+01
1.794158808E+01  2.384582901E+01
1.794816371E+01  2.461207390E+01
1.795473933E+01  2.333010864E+01
1.796131495E+01  2.346560669E+01
1.796789058E+01  2.390953255E+01
1.797446620E+01  2.427600670E+01
1.798104182E+01  2.433003426E+01
1.798761745E+01  2.471700478E+01
1.799419307E+01  2.505498123E+01
1.800076869E+01  2.508460426E+01
1.800734432E+01  2.439224434E+01
1.801391994E+01  2.325032616E+01
1.802049556E+01  2.277407646E+01
1.802707119E+01  2.225355339E+01
1.803364681E+01  2.225032806E+01
1.804022243E+01  2.250031471E+01
1.804679806E+01  2.279414177E+01
1.805337368E+01  2.378476334E+01
1.805994930E+01  2.282340240E+01
1.806652493E+01  2.339361954E+01
1.807310055E+01  2.349071503E+01
1.807967617E+01  2.466468239E+01
1.808625180E+01  2.498261261E+01
1.809282742E+01  2.494470787E+01
1.809940304E+01  2.408485222E+01
1.810597867E+01  2.248038101E+01
1.811255429E+01  2.210168266E+01
1.811912991E+01  2.190643120E+01
1.812570554E+01  2.121604919E+01
1.813228116E+01  2.030066299E+01
1.813885678E+01  1.990399933E+01
1.814543241E+01  2.052805519E+01
1.815200803E+01  2.124852562E+01
1.815858365E+01  2.228071785E+01
1.816515927E+01  2.256255913E+01
1.817173490E+01  2.141182709E+01
1.817831052E+01  2.006081963E+01
1.818488614E+01  2.018857765E+01
1.819146177E+01  2.040918159E+01
1.819803739E+01  2.159010696E+01
1.820461301E+01  2.259100342E+01
1.821118864E+01  2.372902489E+01
1.821776426E+01  2.266556740E+01
1.822433988E+01  2.121437263E+01
1.823091551E+01  1.974290085E+01
1.823749113E+01  1.917527390E+01
1.824406675E+01  1.960701942E+01
1.825064238E+01  1.959463501E+01
1.825721800E+01  1.999250412E+01
1.826379362E+01  2.084449768E+01
1.827036925E+01  2.166377258E+01
1.827694487E+01  2.242446136E+01
1.828352049E+01  2.283365250E+01
1.829009612E+01  2.398910713E+01
1.829667174E+01  2.396176910E+01
1.830324736E+01  2.395055199E+01
1.830982299E+01  2.429210091E+01
1.831639861E+01  2.348666191E+01
1.832297423E+01  2.331038284E+01
1.832954986E+01  2.343688583E+01
1.833612548E+01  2.324439049E+01
1.834270110E+01  2.278982162E+01
1.834927673E+01  2.174533081E+01
1.835585235E+01  2.228743935E+01
1.836242797E+01  2.259508133E+01
1.836900360E+01  2.242430115E+01
1.837557922E+01  2.185043716E+01
1.838215484E+01  2.172513771E+01
1.838873047E+01  2.194980812E+01
1.839530609E+01  2.190674973E+01
1.840188171E+01  2.341960907E+01
1.840845734E+01  2.321969414E+01
1.841503296E+01  2.436833000E+01
1.842160858E+01  2.519974899E+01
1.842818421E+01  2.625321007E+01
1.843475983E+01  2.688532066E+01
1.844133545E+01  2.787698555E+01
1.844791108E+01  2.857646942E+01
1.845448670E+01  2.928760719E+01
1.846106232E+01  3.060428047E+01
1.846763795E+01  3.137136841E+01
1.847421357E+01  3.231757736E+01
1.848078919E+01  3.291286850E+01
1.848736482E+01  3.297882462E+01
1.849394044E+01  3.352507782E+01
1.850051606E+01  3.581231308E+01
1.850709168E+01  3.718917847E+01
1.851366731E+01  3.833008957E+01
1.852024293E+01  3.819175720E+01
1.852681855E+01  3.889698792E+01
1.853339418E+01  4.131571579E+01
1.853996980E+01  4.537848663E+01
1.854654542E+01  4.982887268E+01
1.855312105E+01  5.393196869E+01
1.855969667E+01  5.694310379E+01
1.856627229E+01  5.913323593E+01
1.857284792E+01  6.218541718E+01
1.857942354E+01  6.503118134E+01
1.858599916E+01  6.754685211E+01
1.859257479E+01  6.699781036E+01
1.859915041E+01  6.490767670E+01
1.860572603E+01  6.332194519E+01
1.861230166E+01  6.195982361E+01
1.861887728E+01  6.071229935E+01
1.862545290E+01  5.896536255E+01
1.863202853E+01  5.662346268E+01
1.863860415E+01  5.344398117E+01
1.864517977E+01  4.943422318E+01
1.865175540E+01  4.658629990E+01
1.865833102E+01  4.582635498E+01
1.866490664E+01  4.425875092E+01
1.867148227E+01  4.349713516E+01
1.867805789E+01  4.282607651E+01
1.868463351E+01  4.044868088E+01
1.869120914E+01  3.945533752E+01
1.869778476E+01  3.773878860E+01
1.870436038E+01  3.667969894E+01
1.871093601E+01  3.632537842E+01
1.871751163E+01  3.678089523E+01
1.872408725E+01  3.583116531E+01
1.873066288E+01  3.495117950E+01
1.873723850E+01  3.493637466E+01
1.874381412E+01  3.390798950E+01
1.875038975E+01  3.253616714E+01
1.875696537E+01  3.056289101E+01
1.876354099E+01  2.979998970E+01
1.877011662E+01  2.737030602E+01
1.877669224E+01  2.634438133E+01
1.878326786E+01  2.621258163E+01
1.878984349E+01  2.640410233E+01
1.879641911E+01  2.577473450E+01
1.880299473E+01  2.466738129E+01
1.880957036E+01  2.326311493E+01
1.881614598E+01  2.284875107E+01
1.882272160E+01  2.345307922E+01
1.882929722E+01  2.356367302E+01
1.883587285E+01  2.370504189E+01
1.884244847E+01  2.277851295E+01
1.884902409E+01  2.280592728E+01
1.885559972E+01  2.347706032E+01
1.886217534E+01  2.398951912E+01
1.886875096E+01  2.291404915E+01
1.887532659E+01  2.287866402E+01
1.888190221E+01  2.381041908E+01
1.888847783E+01  2.387734222E+01
1.889505346E+01  2.276581764E+01
1.890162908E+01  2.364253235E+01
1.890820470E+01  2.408025551E+01
1.891478033E+01  2.398604965E+01
1.892135595E+01  2.401970482E+01
1.892793157E+01  2.420500183E+01
1.893450720E+01  2.463522339E+01
1.894108282E+01  2.477090836E+01
1.894765844E+01  2.555841637E+01
1.895423407E+01  2.645668221E+01
1.896080969E+01  2.747372627E+01
1.896738531E+01  2.887164688E+01
1.897396094E+01  2.986867905E+01
1.898053656E+01  2.944773102E+01
1.898711218E+01  2.946523476E+01
1.899368781E+01  2.877955627E+01
1.900026343E+01  2.958110809E+01
1.900683905E+01  3.130891800E+01
1.901341468E+01  3.254770660E+01
1.901999030E+01  3.394745636E+01
1.902656592E+01  3.497257996E+01
1.903314155E+01  3.467799377E+01
1.903971717E+01  3.593536377E+01
1.904629279E+01  3.751626968E+01
1.905286842E+01  3.827548981E+01
1.905944404E+01  3.955390930E+01
1.906601966E+01  4.089002609E+01
1.907259529E+01  4.098089218E+01
1.907917091E+01  4.113660812E+01
1.908574653E+01  4.163275146E+01
1.909232216E+01  4.124823380E+01
1.909889778E+01  4.114588547E+01
1.910547340E+01  4.213535309E+01
1.911204903E+01  4.394860458E+01
1.911862465E+01  4.523670578E+01
1.912520027E+01  4.658658981E+01
1.913177590E+01  4.691635895E+01
1.913835152E+01  4.669927216E+01
1.914492714E+01  4.607410431E+01
1.915150276E+01  4.597469711E+01
1.915807839E+01  4.508729935E+01
1.916465401E+01  4.485297012E+01
1.917122963E+01  4.344278336E+01
1.917780526E+01  4.157586670E+01
1.918438088E+01  4.044297028E+01
1.919095650E+01  4.029304123E+01
1.919753213E+01  3.979460526E+01
1.920410775E+01  3.914545441E+01
1.921068337E+01  3.717082214E+01
1.921725900E+01  3.516680908E+01
1.922383462E+01  3.280594254E+01
1.923041024E+01  3.115852737E+01
1.923698587E+01  3.104527283E+01
1.924356149E+01  3.004834938E+01
1.925013711E+01  2.756489944E+01
1.925671274E+01  2.560729599E+01
1.926328836E+01  2.461552429E+01
1.926986398E+01  2.198558235E+01
1.927643961E+01  1.961148453E+01
1.928301523E+01  1.767982101E+01
1.928959085E+01  1.768276787E+01
1.929616648E+01  1.701079559E+01
1.930274210E+01  1.564775944E+01
1.930931772E+01  1.299721050E+01
1.931589335E+01  1.123865509E+01
1.932246897E+01  9.148011208E+00
1.932904459E+01  8.420890808E+00
1.933562022E+01  7.024220943E+00
1.934219584E+01  5.283555508E+00
1.934877146E+01  2.378704786E+00
1.935534709E+01  -1.748001575E-01
1.936192271E+01  -1.132448196E+00
1.936849833E+01  -1.340148926E+00
1.937507396E+01  -6.878157854E-01
1.938164958E+01  5.747185349E-01
1.938822520E+01  8.389762044E-01
1.939480083E+01  -1.814503670E-01
1.940137645E+01  -2.518819571E-01
1.940795207E+01  -4.580732808E-02
1.941452770E+01  2.731222212E-01
1.942110332E+01  -1.559764594E-01
1.942767894E+01  -1.994888932E-01
1.943425457E+01  -5.195672438E-02
1.944083019E+01  2.338651419E-01
1.944740581E+01  3.438146412E-01
1.945398144E+01  -6.284704059E-02
1.946055706E+01  -5.305851698E-01
1.946713268E+01  6.035550311E-02
1.947370831E+01  2.343251705E-01
1.948028393E+01  8.492632210E-02
1.948685955E+01  -1.706896573E-01
1.949343517E+01  4.596114904E-02
