# == pyFAI calibration ==
# Distance Sample to Detector: 0.400151958433 m
# PONI: 1.472e-01, 1.496e-01 m
# Rotations: -0.001085 0.000539 -0.000000 rad
# 
# == Fit2d calibration ==
# Distance Sample-beamCenter: 400.152 mm
# Center: x=1500.210, y=1474.586 pix
# Tilt: 0.069 deg  TiltPlanRot: 26.426 deg
# 
# Detector Detector	 Spline= None	 PixelSize= 1.000e-04, 1.000e-04 m
#    Detector has a mask: False 
#    Detector has a dark current: False 
#    detector has a flat field: False 
# 
# Wavelength: 4.12969e-11 m
# Mask applied: None
# Dark current applied: None
# Flat field applied: None
# Polarization factor: None
# Normalization factor: None
#
# 2th_deg	 I
6.000256231E+00  1.288062036E-01
6.006831854E+00  -6.210269928E-01
6.013407478E+00  8.839943409E-01
6.019983101E+00  -1.569792777E-01
6.026558724E+00  -3.983950987E-02
6.033134347E+00  -5.700373054E-01
6.039709971E+00  -2.563484609E-01
6.046285594E+00  2.597362995E-01
6.052861217E+00  1.461007714E+00
6.059436840E+00  2.500233889E+00
6.066012464E+00  3.134369373E+00
6.072588087E+00  2.982441425E+00
6.079163710E+00  3.810818911E+00
6.085739334E+00  4.573992729E+00
6.092314957E+00  4.841553211E+00
6.098890580E+00  4.018712521E+00
6.105466203E+00  3.488044262E+00
6.112041827E+00  3.568256140E+00
6.118617450E+00  3.680811405E+00
6.125193073E+00  4.330532074E+00
6.131768696E+00  3.952105522E+00
6.138344320E+00  3.984578848E+00
6.144919943E+00  2.211291552E+00
6.151495566E+00  7.704275250E-01
6.158071190E+00  9.312065244E-01
6.164646813E+00  1.125665903E+00
6.171222436E+00  1.397882938E+00
6.177798059E+00  2.303891659E+00
6.184373683E+00  2.430593729E+00
6.190949306E+00  1.912393808E+00
6.197524929E+00  1.331753135E+00
6.204100552E+00  2.839762270E-01
6.210676176E+00  3.826467991E-01
6.217251799E+00  -2.908526361E-01
6.223827422E+00  1.114905626E-01
6.230403045E+00  1.629201770E+00
6.236978669E+00  2.653927565E+00
6.243554292E+00  2.084066391E+00
6.250129915E+00  2.234358072E+00
6.256705539E+00  3.035751343E+00
6.263281162E+00  2.777655840E+00
6.269856785E+00  1.856597066E+00
6.276432408E+00  2.724309921E+00
6.283008032E+00  1.879446149E+00
6.289583655E+00  5.185768604E-01
6.296159278E+00  -2.343391031E-01
6.302734901E+00  1.291256547E+00
6.309310525E+00  2.567585468E+00
6.315886148E+00  3.902054548E+00
6.322461771E+00  4.500243187E+00
6.329037394E+00  4.709270477E+00
6.335613018E+00  3.392017126E+00
6.342188641E+00  2.365818501E+00
6.348764264E+00  3.268939257E+00
6.355339888E+00  2.453961134E+00
6.361915511E+00  2.328747272E+00
6.368491134E+00  1.388145447E+00
6.375066757E+00  1.101222515E+00
6.381642381E+00  1.102017045E+00
6.388218004E+00  1.780719757E+00
6.394793627E+00  1.867798090E+00
6.401369250E+00  2.022769690E+00
6.407944874E+00  2.130979776E+00
6.414520497E+00  2.278829098E+00
6.421096120E+00  2.422828674E+00
6.427671743E+00  2.978789091E+00
6.434247367E+00  4.269132137E+00
6.440822990E+00  4.736286640E+00
6.447398613E+00  6.021283627E+00
6.453974237E+00  7.066502571E+00
6.460549860E+00  6.696418762E+00
6.467125483E+00  6.117288589E+00
6.473701106E+00  5.796216965E+00
6.480276730E+00  4.482317448E+00
6.486852353E+00  3.584811211E+00
6.493427976E+00  3.306748152E+00
6.500003599E+00  2.006772041E+00
6.506579223E+00  1.710801005E+00
6.513154846E+00  3.013373852E+00
6.519730469E+00  4.492686272E+00
6.526306092E+00  6.001615047E+00
6.532881716E+00  5.325459003E+00
6.539457339E+00  4.075037956E+00
6.546032962E+00  3.792204857E+00
6.552608586E+00  3.741394997E+00
6.559184209E+00  5.266118050E+00
6.565759832E+00  6.204531670E+00
6.572335455E+00  7.285477638E+00
6.578911079E+00  7.548926830E+00
6.585486702E+00  7.509580612E+00
6.592062325E+00  7.325832367E+00
6.598637948E+00  6.163059711E+00
6.605213572E+00  5.532489777E+00
6.611789195E+00  5.859063148E+00
6.618364818E+00  6.137179375E+00
6.624940441E+00  5.493666172E+00
6.631516065E+00  5.644782066E+00
6.638091688E+00  5.574414253E+00
6.644667311E+00  5.755241394E+00
6.651242935E+00  4.392355919E+00
6.657818558E+00  3.200585127E+00
6.664394181E+00  3.116868734E+00
6.670969804E+00  3.076121330E+00
6.677545428E+00  3.673814774E+00
6.684121051E+00  3.822221279E+00
6.690696674E+00  3.105879068E+00
6.697272297E+00  3.179542065E+00
6.703847921E+00  3.191039562E+00
6.710423544E+00  4.397984028E+00
6.716999167E+00  4.556457996E+00
6.723574790E+00  5.040657997E+00
6.730150414E+00  4.634414673E+00
6.736726037E+00  3.924278498E+00
6.743301660E+00  2.680396557E+00
6.749877284E+00  3.231038809E+00
6.756452907E+00  2.650602818E+00
6.763028530E+00  3.470073938E+00
6.769604153E+00  3.958773613E+00
6.776179777E+00  5.129249096E+00
6.782755400E+00  5.612764359E+00
6.789331023E+00  7.430297375E+00
6.795906646E+00  8.340194702E+00
6.802482270E+00  6.251738548E+00
6.809057893E+00  6.009810448E+00
6.815633516E+00  5.301619530E+00
6.822209139E+00  3.278272152E+00
6.828784763E+00  2.772050858E+00
6.835360386E+00  3.227062464E+00
6.841936009E+00  5.501476288E+00
6.848511633E+00  5.271809101E+00
6.855087256E+00  6.535845757E+00
6.861662879E+00  7.522298336E+00
6.868238502E+00  7.657598019E+00
6.874814126E+00  6.056123734E+00
6.881389749E+00  4.442561626E+00
6.887965372E+00  3.724170923E+00
6.894540995E+00  2.510802984E+00
6.901116619E+00  2.126623154E+00
6.907692242E+00  2.286382914E+00
6.914267865E+00  2.485074282E+00
6.920843488E+00  1.908091187E+00
6.927419112E+00  1.442467093E+00
6.933994735E+00  1.723268628E+00
6.940570358E+00  1.457821250E+00
6.947145982E+00  1.830407977E-01
6.953721605E+00  -2.557521313E-02
6.960297228E+00  2.170543224E-01
6.966872851E+00  6.597988605E-01
6.973448475E+00  1.593055129E+00
6.980024098E+00  2.459589958E+00
6.986599721E+00  2.773977518E+00
6.993175344E+00  2.192423105E+00
6.999750968E+00  6.265343428E-01
7.006326591E+00  1.532382131E+00
7.012902214E+00  2.098487616E+00
7.019477837E+00  2.696014881E+00
7.026053461E+00  2.370466709E+00
7.032629084E+00  2.143927097E+00
7.039204707E+00  1.163494825E+00
7.045780331E+00  1.006942511E+00
7.052355954E+00  9.063456059E-01
7.058931577E+00  8.745423555E-01
7.065507200E+00  8.501273394E-02
7.072082824E+00  4.250968993E-01
7.078658447E+00  1.214741945E+00
7.085234070E+00  1.679154873E+00
7.091809693E+00  2.133859158E+00
7.098385317E+00  2.072583199E+00
7.104960940E+00  2.692161322E+00
7.111536563E+00  6.195841432E-01
7.118112186E+00  3.397330344E-01
7.124687810E+00  2.979192734E-01
7.131263433E+00  1.054515690E-01
7.137839056E+00  6.856335998E-01
7.144414680E+00  2.168296814E+00
7.150990303E+00  3.299959421E+00
7.157565926E+00  4.462381840E+00
7.164141549E+00  4.593957424E+00
7.170717173E+00  2.925066233E+00
7.177292796E+00  2.820360422E+00
7.183868419E+00  3.733848333E+00
7.190444042E+00  4.026276112E+00
7.197019666E+00  3.623823643E+00
7.203595289E+00  3.716835499E+00
7.210170912E+00  5.135799408E+00
7.216746535E+00  7.024199009E+00
7.223322159E+00  8.014784813E+00
7.229897782E+00  7.867759228E+00
7.236473405E+00  7.663157463E+00
7.243049029E+00  6.567453384E+00
7.249624652E+00  5.564024925E+00
7.256200275E+00  5.654815197E+00
7.262775898E+00  6.743634701E+00
7.269351522E+00  6.787524700E+00
7.275927145E+00  6.176643848E+00
7.282502768E+00  6.206432343E+00
7.289078391E+00  6.243627548E+00
7.295654015E+00  6.631049633E+00
7.302229638E+00  6.217873573E+00
7.308805261E+00  5.318123817E+00
7.315380884E+00  3.573956013E+00
7.321956508E+00  2.627041817E+00
7.328532131E+00  2.502846241E+00
7.335107754E+00  3.313263655E+00
7.341683378E+00  2.903100729E+00
7.348259001E+00  2.015114546E+00
7.354834624E+00  2.160618067E+00
7.361410247E+00  3.201509714E+00
7.367985871E+00  3.140311956E+00
7.374561494E+00  2.400442600E+00
7.381137117E+00  2.098676682E+00
7.387712740E+00  1.842017651E+00
7.394288364E+00  1.660804033E+00
7.400863987E+00  2.153726101E+00
7.407439610E+00  4.032747269E+00
7.414015233E+00  6.045953274E+00
7.420590857E+00  6.410657406E+00
7.427166480E+00  5.401777267E+00
7.433742103E+00  5.020291328E+00
7.440317727E+00  3.821848631E+00
7.446893350E+00  1.980246902E+00
7.453468973E+00  1.082840323E+00
7.460044596E+00  6.368857622E-01
7.466620220E+00  7.897575498E-01
7.473195843E+00  1.030118585E+00
7.479771466E+00  1.908134580E+00
7.486347089E+00  2.340162039E+00
7.492922713E+00  3.286482334E+00
7.499498336E+00  2.788411856E+00
7.506073959E+00  3.297892809E+00
7.512649582E+00  4.118900776E+00
7.519225206E+00  5.419164181E+00
7.525800829E+00  4.680850983E+00
7.532376452E+00  3.780648232E+00
7.538952076E+00  2.187030315E+00
7.545527699E+00  1.711238384E+00
7.552103322E+00  8.769122362E-01
7.558678945E+00  9.044685364E-01
7.565254569E+00  2.214522123E+00
7.571830192E+00  3.015291929E+00
7.578405815E+00  3.369498968E+00
7.584981438E+00  3.495151043E+00
7.591557062E+00  3.679609776E+00
7.598132685E+00  3.704885006E+00
7.604708308E+00  3.084456205E+00
7.611283931E+00  1.717571974E+00
7.617859555E+00  2.955020368E-01
7.624435178E+00  -6.354709864E-01
7.631010801E+00  -1.115456462E+00
7.637586425E+00  -3.808169067E-01
7.644162048E+00  1.226491779E-01
7.650737671E+00  1.260704637E+00
7.657313294E+00  1.926005840E+00
7.663888918E+00  1.515641451E+00
7.670464541E+00  1.399393320E+00
7.677040164E+00  9.319428802E-01
7.683615787E+00  1.306384325E+00
7.690191411E+00  2.085473299E+00
7.696767034E+00  3.405725479E+00
7.703342657E+00  4.200557709E+00
7.709918281E+00  5.499602795E+00
7.716493904E+00  7.134757996E+00
7.723069527E+00  7.378855705E+00
7.729645150E+00  8.452493668E+00
7.736220774E+00  9.288191795E+00
7.742796397E+00  1.077843571E+01
7.749372020E+00  1.127810955E+01
7.755947643E+00  1.130860138E+01
7.762523267E+00  9.835134506E+00
7.769098890E+00  8.757002831E+00
7.775674513E+00  8.233251572E+00
7.782250136E+00  8.088919640E+00
7.788825760E+00  7.869240761E+00
7.795401383E+00  8.544713974E+00
7.801977006E+00  1.067761040E+01
7.808552630E+00  1.113192940E+01
7.815128253E+00  1.114468575E+01
7.821703876E+00  1.048899746E+01
7.828279499E+00  9.372032166E+00
7.834855123E+00  7.460399628E+00
7.841430746E+00  6.900657654E+00
7.848006369E+00  6.912089348E+00
7.854581992E+00  7.514241695E+00
7.861157616E+00  6.459544659E+00
7.867733239E+00  4.442298889E+00
7.874308862E+00  2.914594173E+00
7.880884485E+00  3.285043955E+00
7.887460109E+00  3.495936155E+00
7.894035732E+00  4.855268002E+00
7.900611355E+00  4.440068722E+00
7.907186979E+00  5.802945614E+00
7.913762602E+00  5.261638641E+00
7.920338225E+00  4.498632908E+00
7.926913848E+00  6.466922283E+00
7.933489472E+00  8.188842773E+00
7.940065095E+00  9.760954857E+00
7.946640718E+00  9.352096558E+00
7.953216341E+00  1.059254169E+01
7.959791965E+00  1.076687622E+01
7.966367588E+00  1.200345230E+01
7.972943211E+00  1.320212173E+01
7.979518834E+00  1.447857666E+01
7.986094458E+00  1.350809765E+01
7.992670081E+00  1.374234867E+01
7.999245704E+00  1.455879688E+01
8.005821328E+00  1.735494614E+01
8.012396951E+00  1.901318169E+01
8.018972574E+00  2.151502609E+01
8.025548197E+00  2.290402794E+01
8.032123821E+00  2.470128822E+01
8.038699444E+00  2.733222198E+01
8.045275067E+00  3.077742386E+01
8.051850690E+00  3.560490036E+01
8.058426314E+00  3.972788239E+01
8.065001937E+00  4.356009293E+01
8.071577560E+00  4.629649734E+01
8.078153183E+00  4.953978729E+01
8.084728807E+00  5.368268585E+01
8.091304430E+00  5.816088104E+01
8.097880053E+00  6.409999084E+01
8.104455677E+00  7.136977386E+01
8.111031300E+00  7.986437988E+01
8.117606923E+00  8.762884521E+01
8.124182546E+00  9.806462860E+01
8.130758170E+00  1.084135056E+02
8.137333793E+00  1.202443848E+02
8.143909416E+00  1.345411987E+02
8.150485039E+00  1.521204071E+02
8.157060663E+00  1.716446075E+02
8.163636286E+00  1.937222137E+02
8.170211909E+00  2.197540894E+02
8.176787532E+00  2.505043945E+02
8.183363156E+00  2.846913452E+02
8.189938779E+00  3.273720093E+02
8.196514402E+00  3.747851562E+02
8.203090026E+00  4.304614258E+02
8.209665649E+00  4.990804443E+02
8.216241272E+00  5.712926025E+02
8.222816895E+00  6.456353149E+02
8.229392519E+00  7.217545776E+02
8.235968142E+00  7.784774170E+02
8.242543765E+00  8.194990845E+02
8.249119388E+00  8.270084839E+02
8.255695012E+00  8.330318604E+02
8.262270635E+00  8.174476318E+02
8.268846258E+00  8.008464966E+02
8.275421881E+00  7.782665405E+02
8.281997505E+00  7.626627808E+02
8.288573128E+00  7.458179321E+02
8.295148751E+00  7.261621094E+02
8.301724375E+00  6.879804077E+02
8.308299998E+00  6.573852539E+02
8.314875621E+00  6.043184204E+02
8.321451244E+00  5.611951294E+02
8.328026868E+00  5.058179626E+02
8.334602491E+00  4.498042603E+02
8.341178114E+00  3.848649597E+02
8.347753737E+00  3.333946838E+02
8.354329361E+00  2.876693726E+02
8.360904984E+00  2.551573334E+02
8.367480607E+00  2.242722168E+02
8.374056230E+00  2.007733917E+02
8.380631854E+00  1.795046844E+02
8.387207477E+00  1.614139252E+02
8.393783100E+00  1.435607605E+02
8.400358724E+00  1.281074066E+02
8.406934347E+00  1.147379837E+02
8.413509970E+00  1.054960556E+02
8.420085593E+00  9.757894135E+01
8.426661217E+00  9.251649475E+01
8.433236840E+00  8.743621063E+01
8.439812463E+00  8.217651367E+01
8.446388086E+00  7.762319183E+01
8.452963710E+00  7.350089264E+01
8.459539333E+00  6.984819794E+01
8.466114956E+00  6.726084137E+01
8.472690579E+00  6.638237762E+01
8.479266203E+00  6.648965454E+01
8.485841826E+00  6.670423889E+01
8.492417449E+00  6.535571289E+01
8.498993073E+00  6.467010498E+01
8.505568696E+00  6.301555634E+01
8.512144319E+00  6.235050964E+01
8.518719942E+00  5.934191132E+01
8.525295566E+00  5.772213364E+01
8.531871189E+00  5.488710403E+01
8.538446812E+00  5.159214401E+01
8.545022435E+00  5.054079437E+01
8.551598059E+00  4.955525589E+01
8.558173682E+00  4.731808853E+01
8.564749305E+00  4.423694229E+01
8.571324928E+00  3.993772888E+01
8.577900552E+00  3.691013718E+01
8.584476175E+00  3.324835205E+01
8.591051798E+00  2.995086288E+01
8.597627422E+00  2.801518250E+01
8.604203045E+00  2.644615746E+01
8.610778668E+00  2.565293503E+01
8.617354291E+00  2.415990829E+01
8.623929915E+00  2.250465775E+01
8.630505538E+00  2.177946281E+01
8.637081161E+00  2.113276100E+01
8.643656784E+00  2.121739197E+01
8.650232408E+00  2.022770691E+01
8.656808031E+00  2.068667984E+01
8.663383654E+00  2.217588425E+01
8.669959277E+00  2.309525871E+01
8.676534901E+00  2.293849754E+01
8.683110524E+00  2.303426743E+01
8.689686147E+00  2.140605545E+01
8.696261771E+00  2.197530746E+01
8.702837394E+00  2.263661575E+01
8.709413017E+00  2.395938110E+01
8.715988640E+00  2.442560005E+01
8.722564264E+00  2.556122017E+01
8.729139887E+00  2.529940987E+01
8.735715510E+00  2.760068321E+01
8.742291133E+00  2.722242928E+01
8.748866757E+00  2.759781456E+01
8.755442380E+00  2.695638657E+01
8.762018003E+00  2.627818108E+01
8.768593626E+00  2.632154655E+01
8.775169250E+00  2.618857765E+01
8.781744873E+00  2.513663864E+01
8.788320496E+00  2.331175804E+01
8.794896120E+00  2.035361290E+01
8.801471743E+00  1.861036873E+01
8.808047366E+00  1.738526154E+01
8.814622989E+00  1.742146492E+01
8.821198613E+00  1.692699242E+01
8.827774236E+00  1.561961365E+01
8.834349859E+00  1.401152802E+01
8.840925482E+00  1.335858250E+01
8.847501106E+00  1.312414074E+01
8.854076729E+00  1.301374817E+01
8.860652352E+00  1.229739952E+01
8.867227975E+00  1.174118233E+01
8.873803599E+00  9.863135338E+00
8.880379222E+00  9.169576645E+00
8.886954845E+00  8.802566528E+00
8.893530469E+00  7.822621346E+00
8.900106092E+00  5.902076721E+00
8.906681715E+00  5.562390327E+00
8.913257338E+00  6.457345486E+00
8.919832962E+00  8.258795738E+00
8.926408585E+00  6.758716583E+00
8.932984208E+00  6.492737770E+00
8.939559831E+00  5.890538216E+00
8.946135455E+00  6.224575520E+00
8.952711078E+00  6.150123596E+00
8.959286701E+00  7.713088989E+00
8.965862324E+00  8.250886917E+00
8.972437948E+00  9.330431938E+00
8.979013571E+00  1.101034164E+01
8.985589194E+00  1.175500393E+01
8.992164818E+00  1.161914444E+01
8.998740441E+00  1.384450340E+01
9.005316064E+00  1.537644386E+01
9.011891687E+00  1.728044701E+01
9.018467311E+00  1.807122040E+01
9.025042934E+00  1.916777420E+01
9.031618557E+00  2.017075729E+01
9.038194180E+00  2.027164459E+01
9.044769804E+00  2.010967255E+01
9.051345427E+00  2.025278282E+01
9.057921050E+00  2.114392281E+01
9.064496673E+00  2.155025864E+01
9.071072297E+00  2.179169083E+01
9.077647920E+00  2.210901642E+01
9.084223543E+00  2.319566727E+01
9.090799167E+00  2.410396576E+01
9.097374790E+00  2.503124428E+01
9.103950413E+00  2.567727852E+01
9.110526036E+00  2.771547318E+01
9.117101660E+00  3.051160622E+01
9.123677283E+00  3.254718399E+01
9.130252906E+00  3.506102371E+01
9.136828529E+00  3.823627853E+01
9.143404153E+00  4.156370926E+01
9.149979776E+00  4.286904526E+01
9.156555399E+00  4.423580170E+01
9.163131022E+00  4.524848938E+01
9.169706646E+00  4.727382278E+01
9.176282269E+00  4.769365311E+01
9.182857892E+00  4.795037842E+01
9.189433516E+00  4.797662735E+01
9.196009139E+00  4.956243515E+01
9.202584762E+00  5.062968445E+01
9.209160385E+00  5.279457855E+01
9.215736009E+00  5.449314880E+01
9.222311632E+00  5.570390320E+01
9.228887255E+00  5.567732620E+01
9.235462878E+00  5.650080109E+01
9.242038502E+00  5.899317169E+01
9.248614125E+00  6.154944611E+01
9.255189748E+00  6.390593719E+01
9.261765372E+00  6.479847717E+01
9.268340995E+00  6.599220276E+01
9.274916618E+00  6.536746979E+01
9.281492241E+00  6.441157532E+01
9.288067865E+00  6.375783539E+01
9.294643488E+00  6.459618378E+01
9.301219111E+00  6.563561249E+01
9.307794734E+00  6.463101196E+01
9.314370358E+00  6.306433105E+01
9.320945981E+00  6.116068268E+01
9.327521604E+00  6.098649979E+01
9.334097227E+00  5.994073105E+01
9.340672851E+00  5.919869614E+01
9.347248474E+00  5.694696045E+01
9.353824097E+00  5.604444122E+01
9.360399721E+00  5.431198120E+01
9.366975344E+00  5.272130966E+01
9.373550967E+00  5.285694122E+01
9.380126590E+00  5.328680420E+01
9.386702214E+00  5.543526077E+01
9.393277837E+00  5.674524307E+01
9.399853460E+00  5.828174591E+01
9.406429083E+00  5.941787720E+01
9.413004707E+00  6.363757706E+01
9.419580330E+00  6.941258240E+01
9.426155953E+00  7.587088776E+01
9.432731576E+00  8.317318726E+01
9.439307200E+00  9.234786224E+01
9.445882823E+00  1.024960327E+02
9.452458446E+00  1.145283966E+02
9.459034070E+00  1.304943237E+02
9.465609693E+00  1.498020630E+02
9.472185316E+00  1.730791016E+02
9.478760939E+00  2.012238922E+02
9.485336563E+00  2.350294495E+02
9.491912186E+00  2.772770691E+02
9.498487809E+00  3.276195984E+02
9.505063432E+00  3.860038147E+02
9.511639056E+00  4.468462524E+02
9.518214679E+00  5.070019226E+02
9.524790302E+00  5.597691650E+02
9.531365925E+00  6.126909180E+02
9.537941549E+00  6.425147095E+02
9.544517172E+00  6.585267944E+02
9.551092795E+00  6.601455078E+02
9.557668419E+00  6.609660645E+02
9.564244042E+00  6.504552612E+02
9.570819665E+00  6.254309082E+02
9.577395288E+00  5.969384766E+02
9.583970912E+00  5.635394287E+02
9.590546535E+00  5.230109863E+02
9.597122158E+00  4.886261902E+02
9.603697781E+00  4.446188660E+02
9.610273405E+00  3.996349487E+02
9.616849028E+00  3.584673767E+02
9.623424651E+00  3.202035217E+02
9.630000274E+00  2.885675049E+02
9.636575898E+00  2.604796753E+02
9.643151521E+00  2.346680145E+02
9.649727144E+00  2.110744324E+02
9.656302768E+00  1.934742737E+02
9.662878391E+00  1.791990509E+02
9.669454014E+00  1.674543304E+02
9.676029637E+00  1.563020782E+02
9.682605261E+00  1.489229584E+02
9.689180884E+00  1.432734985E+02
9.695756507E+00  1.383605347E+02
9.702332130E+00  1.352592468E+02
9.708907754E+00  1.327274475E+02
9.715483377E+00  1.300185547E+02
9.722059000E+00  1.292932129E+02
9.728634623E+00  1.285460663E+02
9.735210247E+00  1.280022125E+02
9.741785870E+00  1.258315811E+02
9.748361493E+00  1.261362457E+02
9.754937117E+00  1.266964951E+02
9.761512740E+00  1.263448563E+02
9.768088363E+00  1.244714966E+02
9.774663986E+00  1.206140213E+02
9.781239610E+00  1.158754730E+02
9.787815233E+00  1.111938782E+02
9.794390856E+00  1.067679672E+02
9.800966479E+00  1.020064621E+02
9.807542103E+00  9.726142120E+01
9.814117726E+00  9.144545746E+01
9.820693349E+00  8.513867188E+01
9.827268972E+00  8.186596680E+01
9.833844596E+00  7.722306061E+01
9.840420219E+00  7.305517578E+01
9.846995842E+00  6.599610138E+01
9.853571466E+00  5.989935303E+01
9.860147089E+00  5.267654419E+01
9.866722712E+00  4.707034683E+01
9.873298335E+00  4.327020264E+01
9.879873959E+00  4.100802612E+01
9.886449582E+00  3.941466141E+01
9.893025205E+00  3.897250366E+01
9.899600828E+00  3.923426056E+01
9.906176452E+00  3.847919846E+01
9.912752075E+00  3.946704865E+01
9.919327698E+00  3.737892151E+01
9.925903321E+00  3.235198593E+01
9.932478945E+00  2.948922539E+01
9.939054568E+00  2.622613716E+01
9.945630191E+00  2.474577522E+01
9.952205815E+00  2.584203148E+01
9.958781438E+00  2.646944618E+01
9.965357061E+00  2.780617905E+01
9.971932684E+00  2.894690514E+01
9.978508308E+00  3.179488373E+01
9.985083931E+00  3.323140335E+01
9.991659554E+00  3.543414307E+01
9.998235177E+00  3.839864349E+01
1.000481080E+01  4.300864029E+01
1.001138642E+01  4.511270905E+01
1.001796205E+01  5.264926910E+01
1.002453767E+01  5.660312653E+01
1.003111329E+01  5.673693466E+01
1.003768892E+01  5.764535904E+01
1.004426454E+01  5.993284988E+01
1.005084016E+01  6.300951385E+01
1.005741579E+01  6.880744171E+01
1.006399141E+01  7.375286102E+01
1.007056703E+01  7.847757721E+01
1.007714266E+01  8.323936462E+01
1.008371828E+01  8.802060699E+01
1.009029390E+01  9.291015625E+01
1.009686953E+01  9.887380219E+01
1.010344515E+01  1.047362289E+02
1.011002077E+01  1.104529800E+02
1.011659640E+01  1.174708328E+02
1.012317202E+01  1.243175888E+02
1.012974764E+01  1.309707794E+02
1.013632327E+01  1.354543304E+02
1.014289889E+01  1.419659729E+02
1.014947451E+01  1.470315857E+02
1.015605014E+01  1.514817200E+02
1.016262576E+01  1.549160004E+02
1.016920138E+01  1.578392792E+02
1.017577701E+01  1.599957123E+02
1.018235263E+01  1.606304016E+02
1.018892825E+01  1.596608429E+02
1.019550388E+01  1.597945099E+02
1.020207950E+01  1.589767303E+02
1.020865512E+01  1.564267426E+02
1.021523075E+01  1.535571136E+02
1.022180637E+01  1.492579803E+02
1.022838199E+01  1.445005188E+02
1.023495762E+01  1.379365540E+02
1.024153324E+01  1.304166565E+02
1.024810886E+01  1.207728348E+02
1.025468448E+01  1.121510544E+02
1.026126011E+01  1.033847961E+02
1.026783573E+01  9.459949493E+01
1.027441135E+01  8.562032318E+01
1.028098698E+01  7.864646149E+01
1.028756260E+01  7.335510254E+01
1.029413822E+01  6.869738007E+01
1.030071385E+01  6.473281860E+01
1.030728947E+01  5.963714218E+01
1.031386509E+01  5.696205521E+01
1.032044072E+01  5.421287918E+01
1.032701634E+01  5.190370941E+01
1.033359196E+01  4.842071915E+01
1.034016759E+01  4.505095673E+01
1.034674321E+01  4.252677917E+01
1.035331883E+01  4.145212936E+01
1.035989446E+01  4.104715347E+01
1.036647008E+01  4.330934906E+01
1.037304570E+01  4.395446777E+01
1.037962133E+01  4.415676117E+01
1.038619695E+01  4.351919556E+01
1.039277257E+01  4.392744446E+01
1.039934820E+01  4.397618103E+01
1.040592382E+01  4.459307098E+01
1.041249944E+01  4.372434616E+01
1.041907507E+01  4.289876175E+01
1.042565069E+01  4.059477615E+01
1.043222631E+01  3.857796478E+01
1.043880194E+01  3.690100861E+01
1.044537756E+01  3.535487747E+01
1.045195318E+01  3.301423645E+01
1.045852881E+01  3.242641068E+01
1.046510443E+01  3.116264534E+01
1.047168005E+01  3.166236496E+01
1.047825568E+01  3.178491020E+01
1.048483130E+01  3.086277390E+01
1.049140692E+01  2.896331024E+01
1.049798255E+01  2.720368958E+01
1.050455817E+01  2.639248085E+01
1.051113379E+01  2.586219025E+01
1.051770942E+01  2.462452126E+01
1.052428504E+01  2.316773987E+01
1.053086066E+01  2.274574471E+01
1.053743629E+01  2.166467857E+01
1.054401191E+01  2.275705338E+01
1.055058753E+01  2.227823257E+01
1.055716316E+01  2.183807755E+01
1.056373878E+01  2.085454941E+01
1.057031440E+01  2.024365997E+01
1.057689002E+01  1.880960274E+01
1.058346565E+01  1.862903404E+01
1.059004127E+01  1.789140320E+01
1.059661689E+01  1.558546829E+01
1.060319252E+01  1.242558098E+01
1.060976814E+01  1.080333138E+01
1.061634376E+01  1.005122852E+01
1.062291939E+01  8.884592056E+00
1.062949501E+01  9.656921387E+00
1.063607063E+01  9.528843880E+00
1.064264626E+01  1.208676529E+01
1.064922188E+01  1.346982288E+01
1.065579750E+01  1.475221062E+01
1.066237313E+01  1.453790379E+01
1.066894875E+01  1.503878498E+01
1.067552437E+01  1.428607178E+01
1.068210000E+01  1.412201309E+01
1.068867562E+01  1.427752590E+01
1.069525124E+01  1.538782215E+01
1.070182687E+01  1.532444096E+01
1.070840249E+01  1.470989323E+01
1.071497811E+01  1.546795940E+01
1.072155374E+01  1.597847176E+01
1.072812936E+01  1.651481438E+01
1.073470498E+01  1.572341919E+01
1.074128061E+01  1.577854633E+01
1.074785623E+01  1.493404675E+01
1.075443185E+01  1.541691589E+01
1.076100748E+01  1.533109856E+01
1.076758310E+01  1.475857067E+01
1.077415872E+01  1.414654064E+01
1.078073435E+01  1.427278519E+01
1.078730997E+01  1.482084084E+01
1.079388559E+01  1.534631920E+01
1.080046122E+01  1.514262486E+01
1.080703684E+01  1.390501785E+01
1.081361246E+01  1.324966240E+01
1.082018809E+01  1.297631359E+01
1.082676371E+01  1.246383572E+01
1.083333933E+01  1.116384697E+01
1.083991496E+01  1.043226433E+01
1.084649058E+01  1.050586987E+01
1.085306620E+01  1.161705112E+01
1.085964183E+01  1.031509495E+01
1.086621745E+01  8.112671852E+00
1.087279307E+01  8.188956261E+00
1.087936870E+01  6.317366123E+00
1.088594432E+01  5.799642563E+00
1.089251994E+01  4.933623314E+00
1.089909556E+01  4.432188988E+00
1.090567119E+01  3.750898123E+00
1.091224681E+01  5.318944931E+00
1.091882243E+01  7.575780392E+00
1.092539806E+01  8.661541939E+00
1.093197368E+01  9.377012253E+00
1.093854930E+01  9.171415329E+00
1.094512493E+01  7.821611881E+00
1.095170055E+01  7.538547993E+00
1.095827617E+01  7.627895355E+00
1.096485180E+01  8.515445709E+00
1.097142742E+01  1.023343372E+01
1.097800304E+01  1.138099289E+01
1.098457867E+01  1.036340427E+01
1.099115429E+01  9.450210571E+00
1.099772991E+01  8.742982864E+00
1.100430554E+01  8.534209251E+00
1.101088116E+01  8.805830956E+00
1.101745678E+01  9.989979744E+00
1.102403241E+01  8.060293198E+00
1.103060803E+01  6.855151176E+00
1.103718365E+01  6.303263187E+00
1.104375928E+01  6.605797291E+00
1.105033490E+01  6.096243858E+00
1.105691052E+01  6.290217876E+00
1.106348615E+01  4.746301651E+00
1.107006177E+01  3.505007505E+00
1.107663739E+01  4.813386917E+00
1.108321302E+01  6.412630081E+00
1.108978864E+01  5.840309620E+00
1.109636426E+01  4.889367104E+00
1.110293989E+01  4.842974663E+00
1.110951551E+01  4.392505169E+00
1.111609113E+01  4.873859882E+00
1.112266676E+01  4.918346882E+00
1.112924238E+01  4.464400768E+00
1.113581800E+01  3.255141735E+00
1.114239363E+01  2.462398767E+00
1.114896925E+01  2.702334166E+00
1.115554487E+01  3.908003569E+00
1.116212050E+01  4.662851810E+00
1.116869612E+01  5.439971447E+00
1.117527174E+01  5.456105232E+00
1.118184737E+01  6.927996635E+00
1.118842299E+01  6.011841297E+00
1.119499861E+01  5.439030647E+00
1.120157424E+01  5.376503468E+00
1.120814986E+01  6.391589642E+00
1.121472548E+01  6.555526257E+00
1.122130111E+01  6.601172447E+00
1.122787673E+01  6.352209568E+00
1.123445235E+01  5.868649006E+00
1.124102797E+01  4.922907352E+00
1.124760360E+01  4.300096989E+00
1.125417922E+01  4.286798954E+00
1.126075484E+01  5.363444805E+00
1.126733047E+01  7.391328335E+00
1.127390609E+01  8.183406830E+00
1.128048171E+01  7.111721039E+00
1.128705734E+01  5.485817432E+00
1.129363296E+01  5.833995819E+00
1.130020858E+01  5.887194157E+00
1.130678421E+01  6.388563633E+00
1.131335983E+01  6.309772968E+00
1.131993545E+01  6.525815010E+00
1.132651108E+01  6.164616108E+00
1.133308670E+01  5.532817841E+00
1.133966232E+01  4.280324936E+00
1.134623795E+01  3.666910648E+00
1.135281357E+01  3.773639441E+00
1.135938919E+01  2.939391613E+00
1.136596482E+01  2.019652128E+00
1.137254044E+01  4.983262718E-01
1.137911606E+01  -3.809122741E-01
1.138569169E+01  3.629170954E-01
1.139226731E+01  8.816956282E-01
1.139884293E+01  1.418614984E+00
1.140541856E+01  1.609935164E+00
1.141199418E+01  2.764280558E+00
1.141856980E+01  4.479339600E+00
1.142514543E+01  5.246356487E+00
1.143172105E+01  5.465755463E+00
1.143829667E+01  7.030637741E+00
1.144487230E+01  8.017210007E+00
1.145144792E+01  8.245331764E+00
1.145802354E+01  6.840037823E+00
1.146459917E+01  5.998629093E+00
1.147117479E+01  5.046823978E+00
1.147775041E+01  5.739050388E+00
1.148432604E+01  6.108545780E+00
1.149090166E+01  8.274482727E+00
1.149747728E+01  8.678299904E+00
1.150405291E+01  9.874715805E+00
1.151062853E+01  9.367178917E+00
1.151720415E+01  9.473587990E+00
1.152377978E+01  1.082141209E+01
1.153035540E+01  1.245462513E+01
1.153693102E+01  1.276973534E+01
1.154350665E+01  1.093668938E+01
1.155008227E+01  9.092230797E+00
1.155665789E+01  8.825246811E+00
1.156323351E+01  1.046437454E+01
1.156980914E+01  1.313805008E+01
1.157638476E+01  1.441416645E+01
1.158296038E+01  1.766188049E+01
1.158953601E+01  1.953795242E+01
1.159611163E+01  2.073624420E+01
1.160268725E+01  2.052874756E+01
1.160926288E+01  1.754926872E+01
1.161583850E+01  1.575339031E+01
1.162241412E+01  1.608399963E+01
1.162898975E+01  1.707724571E+01
1.163556537E+01  1.805638885E+01
1.164214099E+01  1.904244232E+01
1.164871662E+01  2.041774559E+01
1.165529224E+01  2.234979820E+01
1.166186786E+01  2.353686142E+01
1.166844349E+01  2.503656960E+01
1.167501911E+01  2.633185387E+01
1.168159473E+01  2.562537003E+01
1.168817036E+01  2.344008827E+01
1.169474598E+01  2.251138306E+01
1.170132160E+01  2.166886330E+01
1.170789723E+01  2.106245995E+01
1.171447285E+01  1.913799286E+01
1.172104847E+01  1.934177780E+01
1.172762410E+01  1.817140198E+01
1.173419972E+01  1.615032387E+01
1.174077534E+01  1.363941574E+01
1.174735097E+01  1.320364380E+01
1.175392659E+01  1.383717823E+01
1.176050221E+01  1.554102421E+01
1.176707784E+01  1.527175522E+01
1.177365346E+01  1.471982861E+01
1.178022908E+01  1.432863522E+01
1.178680471E+01  1.527935696E+01
1.179338033E+01  1.601538467E+01
1.179995595E+01  1.622961617E+01
1.180653158E+01  1.452706718E+01
1.181310720E+01  1.303178787E+01
1.181968282E+01  1.202115059E+01
1.182625845E+01  1.135163212E+01
1.183283407E+01  1.191095543E+01
1.183940969E+01  1.187785816E+01
1.184598532E+01  1.183732986E+01
1.185256094E+01  1.102816677E+01
1.185913656E+01  1.030781460E+01
1.186571219E+01  8.837432861E+00
1.187228781E+01  8.482278824E+00
1.187886343E+01  7.743351460E+00
1.188543906E+01  8.027899742E+00
1.189201468E+01  7.973151684E+00
1.189859030E+01  8.656764030E+00
1.190516592E+01  9.595845222E+00
1.191174155E+01  1.139588261E+01
1.191831717E+01  1.226392269E+01
1.192489279E+01  1.237185955E+01
1.193146842E+01  1.149656105E+01
1.193804404E+01  1.055161858E+01
1.194461966E+01  9.038508415E+00
1.195119529E+01  9.901581764E+00
1.195777091E+01  1.041477776E+01
1.196434653E+01  9.482403755E+00
1.197092216E+01  8.887187958E+00
1.197749778E+01  7.448478222E+00
1.198407340E+01  8.580348969E+00
1.199064903E+01  1.084335995E+01
1.199722465E+01  1.403879166E+01
1.200380027E+01  1.430093479E+01
1.201037590E+01  1.447599316E+01
1.201695152E+01  1.433351231E+01
1.202352714E+01  1.371920776E+01
1.203010277E+01  1.320389748E+01
1.203667839E+01  1.292529106E+01
1.204325401E+01  1.325889397E+01
1.204982964E+01  1.492298508E+01
1.205640526E+01  1.561582565E+01
1.206298088E+01  1.557327461E+01
1.206955651E+01  1.396283436E+01
1.207613213E+01  1.295249557E+01
1.208270775E+01  1.239726257E+01
1.208928338E+01  1.265702343E+01
1.209585900E+01  1.411412811E+01
1.210243462E+01  1.573588848E+01
1.210901025E+01  1.561852646E+01
1.211558587E+01  1.521324158E+01
1.212216149E+01  1.727299690E+01
1.212873712E+01  1.978463745E+01
1.213531274E+01  2.048403931E+01
1.214188836E+01  2.092543411E+01
1.214846399E+01  2.116989326E+01
1.215503961E+01  2.088590622E+01
1.216161523E+01  2.067849350E+01
1.216819086E+01  2.020784569E+01
1.217476648E+01  1.932946777E+01
1.218134210E+01  1.856048965E+01
1.218791773E+01  1.783649445E+01
1.219449335E+01  1.726933479E+01
1.220106897E+01  1.681803322E+01
1.220764460E+01  1.699092865E+01
1.221422022E+01  1.743746948E+01
1.222079584E+01  1.830661774E+01
1.222737146E+01  1.819899559E+01
1.223394709E+01  1.813270569E+01
1.224052271E+01  1.788560867E+01
1.224709833E+01  1.795383644E+01
1.225367396E+01  1.781251335E+01
1.226024958E+01  1.680004883E+01
1.226682520E+01  1.684323311E+01
1.227340083E+01  1.686103630E+01
1.227997645E+01  1.726461792E+01
1.228655207E+01  1.671952820E+01
1.229312770E+01  1.540499210E+01
1.229970332E+01  1.322679138E+01
1.230627894E+01  1.326062965E+01
1.231285457E+01  1.408123302E+01
1.231943019E+01  1.555141163E+01
1.232600581E+01  1.605643463E+01
1.233258144E+01  1.627844620E+01
1.233915706E+01  1.611052513E+01
1.234573268E+01  1.553754616E+01
1.235230831E+01  1.749702072E+01
1.235888393E+01  1.887372398E+01
1.236545955E+01  2.054998970E+01
1.237203518E+01  1.995062828E+01
1.237861080E+01  1.829391098E+01
1.238518642E+01  1.775074387E+01
1.239176205E+01  1.708236122E+01
1.239833767E+01  1.796796989E+01
1.240491329E+01  1.881382370E+01
1.241148892E+01  2.036846733E+01
1.241806454E+01  2.180719757E+01
1.242464016E+01  2.079017830E+01
1.243121579E+01  2.055228043E+01
1.243779141E+01  2.143237495E+01
1.244436703E+01  2.100127411E+01
1.245094266E+01  2.092353630E+01
1.245751828E+01  2.114253235E+01
1.246409390E+01  2.292047882E+01
1.247066953E+01  2.370611763E+01
1.247724515E+01  2.326606369E+01
1.248382077E+01  2.309740067E+01
1.249039640E+01  2.361518478E+01
1.249697202E+01  2.379794693E+01
1.250354764E+01  2.636006355E+01
1.251012327E+01  2.857401085E+01
1.251669889E+01  3.030504608E+01
1.252327451E+01  3.143502617E+01
1.252985014E+01  3.457384109E+01
1.253642576E+01  3.752326584E+01
1.254300138E+01  4.000257111E+01
1.254957700E+01  3.918463135E+01
1.255615263E+01  4.064808655E+01
1.256272825E+01  4.422402191E+01
1.256930387E+01  4.656383514E+01
1.257587950E+01  4.698493576E+01
1.258245512E+01  4.774760818E+01
1.258903074E+01  4.826496887E+01
1.259560637E+01  4.759759521E+01
1.260218199E+01  4.965372086E+01
1.260875761E+01  5.224148560E+01
1.261533324E+01  5.450642395E+01
1.262190886E+01  5.375325012E+01
1.262848448E+01  5.257917023E+01
1.263506011E+01  5.263655090E+01
1.264163573E+01  5.271399689E+01
1.264821135E+01  5.470557404E+01
1.265478698E+01  5.694334412E+01
1.266136260E+01  5.730721664E+01
1.266793822E+01  5.561458969E+01
1.267451385E+01  5.649195862E+01
1.268108947E+01  5.592908859E+01
1.268766509E+01  5.639328003E+01
1.269424072E+01  5.583523560E+01
1.270081634E+01  5.658895874E+01
1.270739196E+01  5.662418747E+01
1.271396759E+01  5.763087463E+01
1.272054321E+01  5.725893784E+01
1.272711883E+01  5.813826370E+01
1.273369446E+01  5.898419571E+01
1.274027008E+01  5.938462830E+01
1.274684570E+01  5.983419418E+01
1.275342133E+01  5.979530334E+01
1.275999695E+01  6.060388947E+01
1.276657257E+01  6.157831192E+01
1.277314820E+01  6.326105499E+01
1.277972382E+01  6.339772034E+01
1.278629944E+01  6.403762054E+01
1.279287507E+01  6.500594330E+01
1.279945069E+01  6.606538391E+01
1.280602631E+01  6.855431366E+01
1.281260194E+01  7.013777161E+01
1.281917756E+01  7.265460968E+01
1.282575318E+01  7.333090973E+01
1.283232881E+01  7.369155121E+01
1.283890443E+01  7.344211578E+01
1.284548005E+01  7.456451416E+01
1.285205568E+01  7.462125397E+01
1.285863130E+01  7.479689026E+01
1.286520692E+01  7.397570801E+01
1.287178255E+01  7.362107849E+01
1.287835817E+01  7.416659546E+01
1.288493379E+01  7.641011810E+01
1.289150941E+01  7.956208038E+01
1.289808504E+01  8.115179443E+01
1.290466066E+01  8.080377960E+01
1.291123628E+01  7.952144623E+01
1.291781191E+01  7.905139160E+01
1.292438753E+01  7.789849854E+01
1.293096315E+01  7.685282898E+01
1.293753878E+01  7.603938293E+01
1.294411440E+01  7.641081238E+01
1.295069002E+01  7.587728882E+01
1.295726565E+01  7.434605408E+01
1.296384127E+01  7.216916656E+01
1.297041689E+01  6.891257477E+01
1.297699252E+01  6.625842285E+01
1.298356814E+01  6.418914795E+01
1.299014376E+01  6.310076141E+01
1.299671939E+01  6.156555939E+01
1.300329501E+01  6.002691650E+01
1.300987063E+01  5.872801971E+01
1.301644626E+01  5.843158722E+01
1.302302188E+01  5.608002090E+01
1.302959750E+01  5.428808975E+01
1.303617313E+01  5.159585190E+01
1.304274875E+01  4.919180679E+01
1.304932437E+01  4.627666092E+01
1.305590000E+01  4.455501938E+01
1.306247562E+01  4.411918640E+01
1.306905124E+01  4.247113419E+01
1.307562687E+01  3.924271393E+01
1.308220249E+01  3.865220642E+01
1.308877811E+01  3.912979507E+01
1.309535374E+01  3.737666702E+01
1.310192936E+01  3.673511887E+01
1.310850498E+01  3.258113480E+01
1.311508061E+01  2.983513451E+01
1.312165623E+01  2.626811790E+01
1.312823185E+01  2.405733681E+01
1.313480748E+01  2.300894547E+01
1.314138310E+01  2.336561966E+01
1.314795872E+01  2.305704689E+01
1.315453435E+01  2.176779366E+01
1.316110997E+01  2.177861786E+01
1.316768559E+01  2.161099815E+01
1.317426122E+01  2.178982925E+01
1.318083684E+01  2.109195709E+01
1.318741246E+01  1.926981354E+01
1.319398809E+01  1.944252777E+01
1.320056371E+01  2.030637932E+01
1.320713933E+01  2.009914398E+01
1.321371495E+01  2.033643723E+01
1.322029058E+01  1.952361107E+01
1.322686620E+01  1.866749191E+01
1.323344182E+01  1.881444740E+01
1.324001745E+01  1.871934891E+01
1.324659307E+01  1.949155235E+01
1.325316869E+01  2.117547989E+01
1.325974432E+01  2.269640923E+01
1.326631994E+01  2.260754967E+01
1.327289556E+01  2.457588005E+01
1.327947119E+01  2.695295143E+01
1.328604681E+01  2.844676018E+01
1.329262243E+01  2.979362297E+01
1.329919806E+01  3.294470215E+01
1.330577368E+01  3.454354858E+01
1.331234930E+01  3.459210968E+01
1.331892493E+01  3.443656540E+01
1.332550055E+01  3.534938049E+01
1.333207617E+01  3.771092224E+01
1.333865180E+01  4.032685089E+01
1.334522742E+01  4.493838501E+01
1.335180304E+01  5.227598953E+01
1.335837867E+01  5.779866028E+01
1.336495429E+01  6.149956131E+01
1.337152991E+01  6.679228210E+01
1.337810554E+01  7.212847900E+01
1.338468116E+01  7.710241699E+01
1.339125678E+01  8.310813141E+01
1.339783241E+01  8.891860199E+01
1.340440803E+01  9.762757874E+01
1.341098365E+01  1.078849792E+02
1.341755928E+01  1.180687561E+02
1.342413490E+01  1.288156433E+02
1.343071052E+01  1.392330627E+02
1.343728615E+01  1.521193695E+02
1.344386177E+01  1.660600586E+02
1.345043739E+01  1.803671112E+02
1.345701302E+01  1.944683228E+02
1.346358864E+01  2.112386780E+02
1.347016426E+01  2.325693054E+02
1.347673989E+01  2.547653961E+02
1.348331551E+01  2.754529419E+02
1.348989113E+01  2.945982666E+02
1.349646676E+01  3.089806824E+02
1.350304238E+01  3.245684204E+02
1.350961800E+01  3.377648621E+02
1.351619363E+01  3.490777588E+02
1.352276925E+01  3.521692810E+02
1.352934487E+01  3.509232178E+02
1.353592050E+01  3.453175354E+02
1.354249612E+01  3.373898926E+02
1.354907174E+01  3.285875244E+02
1.355564736E+01  3.211452942E+02
1.356222299E+01  3.119127808E+02
1.356879861E+01  3.011380615E+02
1.357537423E+01  2.835456848E+02
1.358194986E+01  2.607963257E+02
1.358852548E+01  2.360960236E+02
1.359510110E+01  2.103890686E+02
1.360167673E+01  1.870201721E+02
1.360825235E+01  1.650298767E+02
1.361482797E+01  1.449767151E+02
1.362140360E+01  1.282757263E+02
1.362797922E+01  1.143043365E+02
1.363455484E+01  1.022690506E+02
1.364113047E+01  9.111614990E+01
1.364770609E+01  8.261317444E+01
1.365428171E+01  7.588462067E+01
1.366085734E+01  6.871269989E+01
1.366743296E+01  6.146065521E+01
1.367400858E+01  5.565825653E+01
1.368058421E+01  5.192804337E+01
1.368715983E+01  4.914254761E+01
1.369373545E+01  4.454247665E+01
1.370031108E+01  3.909558105E+01
1.370688670E+01  3.546493530E+01
1.371346232E+01  3.298254776E+01
1.372003795E+01  3.197213364E+01
1.372661357E+01  3.092538071E+01
1.373318919E+01  3.145848846E+01
1.373976482E+01  3.023013687E+01
1.374634044E+01  2.956111908E+01
1.375291606E+01  2.893335724E+01
1.375949169E+01  2.883415604E+01
1.376606731E+01  2.802668953E+01
1.377264293E+01  2.692502213E+01
1.377921856E+01  2.605942726E+01
1.378579418E+01  2.501925659E+01
1.379236980E+01  2.384797478E+01
1.379894543E+01  2.379704475E+01
1.380552105E+01  2.329421234E+01
1.381209667E+01  2.321350098E+01
1.381867230E+01  2.447337723E+01
1.382524792E+01  2.564904404E+01
1.383182354E+01  2.572000313E+01
1.383839917E+01  2.386790085E+01
1.384497479E+01  2.359128380E+01
1.385155041E+01  2.439016151E+01
1.385812604E+01  2.640760803E+01
1.386470166E+01  2.873884773E+01
1.387127728E+01  3.001719093E+01
1.387785290E+01  2.867916870E+01
1.388442853E+01  2.801824379E+01
1.389100415E+01  2.769213867E+01
1.389757977E+01  2.795915794E+01
1.390415540E+01  2.945114136E+01
1.391073102E+01  3.088733101E+01
1.391730664E+01  3.281118393E+01
1.392388227E+01  3.427885437E+01
1.393045789E+01  3.471953201E+01
1.393703351E+01  3.252970505E+01
1.394360914E+01  3.295936203E+01
1.395018476E+01  3.451679611E+01
1.395676038E+01  3.699643326E+01
1.396333601E+01  4.007550430E+01
1.396991163E+01  4.051425171E+01
1.397648725E+01  4.121597672E+01
1.398306288E+01  4.234570694E+01
1.398963850E+01  4.428232193E+01
1.399621412E+01  4.700773239E+01
1.400278975E+01  4.684077072E+01
1.400936537E+01  4.612710953E+01
1.401594099E+01  4.686965561E+01
1.402251662E+01  4.981740189E+01
1.402909224E+01  5.109972000E+01
1.403566786E+01  5.109889603E+01
1.404224349E+01  5.081930161E+01
1.404881911E+01  5.129362106E+01
1.405539473E+01  5.076351547E+01
1.406197036E+01  5.139693069E+01
1.406854598E+01  5.276219177E+01
1.407512160E+01  5.414149094E+01
1.408169723E+01  5.533997726E+01
1.408827285E+01  5.644893265E+01
1.409484847E+01  5.844390488E+01
1.410142410E+01  6.027116013E+01
1.410799972E+01  6.010840607E+01
1.411457534E+01  5.931840515E+01
1.412115097E+01  5.768336487E+01
1.412772659E+01  5.495277023E+01
1.413430221E+01  5.349476624E+01
1.414087784E+01  5.306812286E+01
1.414745346E+01  5.226900864E+01
1.415402908E+01  5.140112305E+01
1.416060471E+01  4.994198990E+01
1.416718033E+01  4.812987900E+01
1.417375595E+01  4.662786102E+01
1.418033158E+01  4.572108841E+01
1.418690720E+01  4.608582306E+01
1.419348282E+01  4.631776428E+01
1.420005844E+01  4.634512711E+01
1.420663407E+01  4.725287247E+01
1.421320969E+01  4.427391434E+01
1.421978531E+01  4.050199890E+01
1.422636094E+01  3.693712616E+01
1.423293656E+01  3.565938568E+01
1.423951218E+01  3.539045334E+01
1.424608781E+01  3.570699692E+01
1.425266343E+01  3.479017258E+01
1.425923905E+01  3.270542145E+01
1.426581468E+01  3.194639206E+01
1.427239030E+01  3.120206070E+01
1.427896592E+01  3.179323006E+01
1.428554155E+01  3.121306992E+01
1.429211717E+01  3.037125206E+01
1.429869279E+01  2.856660843E+01
1.430526842E+01  2.649200821E+01
1.431184404E+01  2.483349037E+01
1.431841966E+01  2.343529129E+01
1.432499529E+01  2.233891106E+01
1.433157091E+01  2.203702354E+01
1.433814653E+01  2.188264847E+01
1.434472216E+01  2.218681335E+01
1.435129778E+01  2.149198723E+01
1.435787340E+01  2.166046524E+01
1.436444903E+01  2.152768326E+01
1.437102465E+01  2.166442299E+01
1.437760027E+01  2.228941917E+01
1.438417590E+01  2.137335205E+01
1.439075152E+01  2.032587051E+01
1.439732714E+01  2.040964508E+01
1.440390277E+01  2.142982483E+01
1.441047839E+01  2.183462715E+01
1.441705401E+01  2.207372856E+01
1.442362964E+01  2.377893448E+01
1.443020526E+01  2.476613235E+01
1.443678088E+01  2.410315895E+01
1.444335651E+01  2.199213409E+01
1.444993213E+01  2.065323448E+01
1.445650775E+01  1.945556641E+01
1.446308338E+01  1.910661888E+01
1.446965900E+01  1.862392998E+01
1.447623462E+01  2.035170937E+01
1.448281025E+01  2.162048531E+01
1.448938587E+01  2.214311790E+01
1.449596149E+01  2.153969002E+01
1.450253712E+01  2.084093475E+01
1.450911274E+01  1.982709312E+01
1.451568836E+01  1.960018730E+01
1.452226399E+01  2.158987999E+01
1.452883961E+01  2.242261124E+01
1.453541523E+01  2.399386406E+01
1.454199085E+01  2.501259995E+01
1.454856648E+01  2.533720398E+01
1.455514210E+01  2.407605171E+01
1.456171772E+01  2.380188751E+01
1.456829335E+01  2.261577034E+01
1.457486897E+01  2.245812225E+01
1.458144459E+01  2.168977356E+01
1.458802022E+01  2.061149979E+01
1.459459584E+01  1.888345718E+01
1.460117146E+01  1.945290756E+01
1.460774709E+01  2.085061646E+01
1.461432271E+01  2.316007996E+01
1.462089833E+01  2.252437210E+01
1.462747396E+01  2.293812561E+01
1.463404958E+01  2.344431686E+01
1.464062520E+01  2.424559593E+01
1.464720083E+01  2.297282791E+01
1.465377645E+01  2.229692268E+01
1.466035207E+01  2.127941704E+01
1.466692770E+01  2.118838882E+01
1.467350332E+01  2.114933968E+01
1.468007894E+01  2.207731819E+01
1.468665457E+01  2.215593147E+01
1.469323019E+01  2.133196640E+01
1.469980581E+01  2.165133476E+01
1.470638144E+01  2.164920044E+01
1.471295706E+01  2.116346550E+01
1.471953268E+01  2.176444626E+01
1.472610831E+01  2.192285347E+01
1.473268393E+01  2.249708939E+01
1.473925955E+01  2.166342545E+01
1.474583518E+01  2.062157059E+01
1.475241080E+01  1.972504044E+01
1.475898642E+01  2.072041130E+01
1.476556205E+01  2.202320480E+01
1.477213767E+01  2.205382729E+01
1.477871329E+01  2.108668137E+01
1.478528892E+01  1.987370872E+01
1.479186454E+01  1.821811867E+01
1.479844016E+01  1.816091347E+01
1.480501579E+01  1.889885330E+01
1.481159141E+01  2.092166519E+01
1.481816703E+01  2.223714256E+01
1.482474266E+01  2.174467850E+01
1.483131828E+01  2.065665245E+01
1.483789390E+01  2.115077782E+01
1.484446953E+01  2.046384621E+01
1.485104515E+01  1.962073517E+01
1.485762077E+01  1.810335541E+01
1.486419639E+01  1.753179932E+01
1.487077202E+01  1.837674713E+01
1.487734764E+01  1.797655296E+01
1.488392326E+01  1.737904930E+01
1.489049889E+01  1.747581291E+01
1.489707451E+01  1.873166847E+01
1.490365013E+01  2.101573944E+01
1.491022576E+01  2.067078209E+01
1.491680138E+01  1.922754288E+01
1.492337700E+01  1.899606705E+01
1.492995263E+01  2.088650131E+01
1.493652825E+01  2.212002945E+01
1.494310387E+01  2.205797577E+01
1.494967950E+01  2.166176033E+01
1.495625512E+01  2.082493973E+01
1.496283074E+01  1.811197090E+01
1.496940637E+01  1.833193970E+01
1.497598199E+01  1.890428925E+01
1.498255761E+01  1.856682587E+01
1.498913324E+01  1.750217628E+01
1.499570886E+01  1.614346695E+01
1.500228448E+01  1.523046207E+01
1.500886011E+01  1.575292873E+01
1.501543573E+01  1.799555969E+01
1.502201135E+01  1.817273521E+01
1.502858698E+01  1.702374268E+01
1.503516260E+01  1.608767319E+01
1.504173822E+01  1.600567055E+01
1.504831385E+01  1.708928871E+01
1.505488947E+01  1.684442329E+01
1.506146509E+01  1.803917313E+01
1.506804072E+01  1.805833817E+01
1.507461634E+01  1.711093330E+01
1.508119196E+01  1.655490685E+01
1.508776759E+01  1.516958714E+01
1.509434321E+01  1.441057301E+01
1.510091883E+01  1.503961563E+01
1.510749446E+01  1.575059223E+01
1.511407008E+01  1.482038784E+01
1.512064570E+01  1.430078697E+01
1.512722133E+01  1.346574306E+01
1.513379695E+01  1.360531712E+01
1.514037257E+01  1.334257889E+01
1.514694820E+01  1.392217541E+01
1.515352382E+01  1.408728886E+01
1.516009944E+01  1.515141010E+01
1.516667507E+01  1.426738358E+01
1.517325069E+01  1.309098244E+01
1.517982631E+01  1.155873775E+01
1.518640194E+01  1.211743164E+01
1.519297756E+01  1.258298588E+01
1.519955318E+01  1.327376175E+01
1.520612880E+01  1.217071629E+01
1.521270443E+01  1.071915913E+01
1.521928005E+01  9.622701645E+00
1.522585567E+01  9.423329353E+00
1.523243130E+01  1.060639000E+01
1.523900692E+01  1.086767673E+01
1.524558254E+01  1.078872585E+01
1.525215817E+01  1.067958832E+01
1.525873379E+01  9.859593391E+00
1.526530941E+01  1.022619534E+01
1.527188504E+01  1.063192749E+01
1.527846066E+01  1.144250679E+01
1.528503628E+01  1.224386597E+01
1.529161191E+01  1.261412811E+01
1.529818753E+01  1.270807743E+01
1.530476315E+01  1.172444630E+01
1.531133878E+01  1.219595146E+01
1.531791440E+01  1.268363476E+01
1.532449002E+01  1.413818645E+01
1.533106565E+01  1.246147537E+01
1.533764127E+01  1.031073952E+01
1.534421689E+01  9.141075134E+00
1.535079252E+01  9.119005203E+00
1.535736814E+01  8.583419800E+00
1.536394376E+01  8.651042938E+00
1.537051939E+01  1.037805557E+01
1.537709501E+01  1.242025089E+01
1.538367063E+01  1.339241028E+01
1.539024626E+01  1.439808464E+01
1.539682188E+01  1.362041855E+01
1.540339750E+01  1.167273617E+01
1.540997313E+01  1.157998276E+01
1.541654875E+01  1.236759377E+01
1.542312437E+01  1.355270576E+01
1.542970000E+01  1.439952755E+01
1.543627562E+01  1.287246418E+01
1.544285124E+01  1.268250179E+01
1.544942687E+01  1.221396828E+01
1.545600249E+01  1.133410168E+01
1.546257811E+01  1.088084030E+01
1.546915374E+01  1.161155891E+01
1.547572936E+01  1.170257473E+01
1.548230498E+01  1.222131634E+01
1.548888061E+01  1.303111076E+01
1.549545623E+01  1.462565422E+01
1.550203185E+01  1.412119675E+01
1.550860748E+01  1.353242683E+01
1.551518310E+01  1.283252335E+01
1.552175872E+01  1.470120907E+01
1.552833434E+01  1.725130653E+01
1.553490997E+01  1.877141762E+01
1.554148559E+01  2.007943535E+01
1.554806121E+01  2.082235527E+01
1.555463684E+01  2.076777458E+01
1.556121246E+01  2.116863441E+01
1.556778808E+01  2.204154968E+01
1.557436371E+01  2.257695961E+01
1.558093933E+01  2.294479179E+01
1.558751495E+01  2.300881577E+01
1.559409058E+01  2.406932831E+01
1.560066620E+01  2.593003845E+01
1.560724182E+01  2.627404785E+01
1.561381745E+01  2.843094063E+01
1.562039307E+01  3.182990837E+01
1.562696869E+01  3.469946289E+01
1.563354432E+01  3.648831940E+01
1.564011994E+01  3.936200333E+01
1.564669556E+01  4.130585861E+01
1.565327119E+01  4.285600281E+01
1.565984681E+01  4.583371735E+01
1.566642243E+01  4.936009598E+01
1.567299806E+01  5.379450607E+01
1.567957368E+01  5.707541656E+01
1.568614930E+01  6.107050323E+01
1.569272493E+01  6.348924255E+01
1.569930055E+01  6.403085327E+01
1.570587617E+01  6.675734711E+01
1.571245180E+01  7.199149323E+01
1.571902742E+01  7.860391235E+01
1.572560304E+01  8.431970978E+01
1.573217867E+01  9.112133026E+01
1.573875429E+01  9.904736328E+01
1.574532991E+01  1.091505661E+02
1.575190554E+01  1.204085159E+02
1.575848116E+01  1.323119507E+02
1.576505678E+01  1.453477325E+02
1.577163241E+01  1.593703766E+02
1.577820803E+01  1.733091431E+02
1.578478365E+01  1.904575043E+02
1.579135928E+01  2.071206970E+02
1.579793490E+01  2.242372284E+02
1.580451052E+01  2.448642731E+02
1.581108615E+01  2.664437866E+02
1.581766177E+01  2.876056824E+02
1.582423739E+01  3.087108765E+02
1.583081302E+01  3.352500916E+02
1.583738864E+01  3.597248840E+02
1.584396426E+01  3.845727539E+02
1.585053988E+01  4.063216248E+02
1.585711551E+01  4.251004333E+02
1.586369113E+01  4.406094055E+02
1.587026675E+01  4.539750366E+02
1.587684238E+01  4.641016541E+02
1.588341800E+01  4.689531860E+02
1.588999362E+01  4.700789795E+02
1.589656925E+01  4.641816406E+02
1.590314487E+01  4.531181946E+02
1.590972049E+01  4.382660522E+02
1.591629612E+01  4.183322754E+02
1.592287174E+01  3.958232422E+02
1.592944736E+01  3.687335510E+02
1.593602299E+01  3.406042480E+02
1.594259861E+01  3.104040833E+02
1.594917423E+01  2.820783081E+02
1.595574986E+01  2.547026825E+02
1.596232548E+01  2.301516571E+02
1.596890110E+01  2.064300995E+02
1.597547673E+01  1.856595764E+02
1.598205235E+01  1.695695801E+02
1.598862797E+01  1.575111542E+02
1.599520360E+01  1.461810303E+02
1.600177922E+01  1.355880127E+02
1.600835484E+01  1.267427902E+02
1.601493047E+01  1.188050156E+02
1.602150609E+01  1.117165604E+02
1.602808171E+01  1.057811050E+02
1.603465734E+01  9.842734528E+01
1.604123296E+01  9.308592224E+01
1.604780858E+01  8.717918396E+01
1.605438421E+01  8.227301788E+01
1.606095983E+01  7.664574432E+01
1.606753545E+01  7.286081696E+01
1.607411108E+01  6.795535278E+01
1.608068670E+01  6.419886017E+01
1.608726232E+01  6.092338943E+01
1.609383795E+01  5.996681976E+01
1.610041357E+01  5.872222900E+01
1.610698919E+01  6.043719101E+01
1.611356482E+01  5.799599457E+01
1.612014044E+01  5.627854538E+01
1.612671606E+01  5.143622971E+01
1.613329169E+01  4.901106644E+01
1.613986731E+01  4.581851578E+01
1.614644293E+01  4.494796753E+01
1.615301856E+01  4.396683884E+01
1.615959418E+01  4.345964432E+01
1.616616980E+01  4.189419174E+01
1.617274543E+01  4.081251907E+01
1.617932105E+01  3.912238312E+01
1.618589667E+01  3.750741959E+01
1.619247229E+01  3.507314682E+01
1.619904792E+01  3.387623978E+01
1.620562354E+01  3.222094727E+01
1.621219916E+01  3.159851646E+01
1.621877479E+01  3.135127640E+01
1.622535041E+01  3.114625359E+01
1.623192603E+01  2.958748627E+01
1.623850166E+01  2.880977058E+01
1.624507728E+01  2.783657455E+01
1.625165290E+01  2.711127663E+01
1.625822853E+01  2.489415550E+01
1.626480415E+01  2.222330856E+01
1.627137977E+01  2.052599525E+01
1.627795540E+01  1.971774673E+01
1.628453102E+01  1.882835007E+01
1.629110664E+01  1.954872131E+01
1.629768227E+01  1.972943878E+01
1.630425789E+01  1.938904190E+01
1.631083351E+01  1.884001732E+01
1.631740914E+01  1.971955109E+01
1.632398476E+01  1.894998169E+01
1.633056038E+01  1.923587036E+01
1.633713601E+01  1.941556549E+01
1.634371163E+01  1.980983734E+01
1.635028725E+01  1.991669655E+01
1.635686288E+01  2.103688622E+01
1.636343850E+01  2.118257904E+01
1.637001412E+01  2.071506500E+01
1.637658975E+01  2.220266342E+01
1.638316537E+01  2.370686340E+01
1.638974099E+01  2.540780640E+01
1.639631662E+01  2.672000885E+01
1.640289224E+01  2.858484650E+01
1.640946786E+01  3.062777901E+01
1.641604349E+01  3.389712143E+01
1.642261911E+01  3.601443863E+01
1.642919473E+01  3.735764313E+01
1.643577036E+01  3.806050873E+01
1.644234598E+01  4.064451981E+01
1.644892160E+01  4.321269226E+01
1.645549723E+01  4.531240082E+01
1.646207285E+01  4.711015701E+01
1.646864847E+01  5.063135910E+01
1.647522410E+01  5.497515106E+01
1.648179972E+01  6.000727844E+01
1.648837534E+01  6.333421707E+01
1.649495097E+01  6.564593506E+01
1.650152659E+01  7.040389252E+01
1.650810221E+01  7.644847107E+01
1.651467783E+01  8.200968170E+01
1.652125346E+01  8.594792938E+01
1.652782908E+01  9.054254913E+01
1.653440470E+01  9.592054749E+01
1.654098033E+01  1.004979935E+02
1.654755595E+01  1.053051987E+02
1.655413157E+01  1.097396774E+02
1.656070720E+01  1.131061554E+02
1.656728282E+01  1.158148422E+02
1.657385844E+01  1.192612839E+02
1.658043407E+01  1.221828232E+02
1.658700969E+01  1.240052719E+02
1.659358531E+01  1.239361801E+02
1.660016094E+01  1.233989182E+02
1.660673656E+01  1.217811966E+02
1.661331218E+01  1.196567535E+02
1.661988781E+01  1.169089127E+02
1.662646343E+01  1.123374634E+02
1.663303905E+01  1.056831436E+02
1.663961468E+01  9.863441467E+01
1.664619030E+01  9.308822632E+01
1.665276592E+01  8.817884064E+01
1.665934155E+01  8.194139099E+01
1.666591717E+01  7.585533905E+01
1.667249279E+01  7.111058044E+01
1.667906842E+01  6.723979950E+01
1.668564404E+01  6.346170425E+01
1.669221966E+01  5.894079971E+01
1.669879529E+01  5.463259888E+01
1.670537091E+01  5.260395050E+01
1.671194653E+01  4.917316818E+01
1.671852216E+01  4.764244080E+01
1.672509778E+01  4.647314835E+01
1.673167340E+01  4.607344437E+01
1.673824903E+01  4.394426727E+01
1.674482465E+01  4.235607910E+01
1.675140027E+01  4.079663086E+01
1.675797590E+01  4.143141937E+01
1.676455152E+01  4.061247253E+01
1.677112714E+01  4.029922867E+01
1.677770277E+01  4.019138718E+01
1.678427839E+01  4.067760086E+01
1.679085401E+01  4.112896347E+01
1.679742964E+01  4.101129913E+01
1.680400526E+01  4.142665863E+01
1.681058088E+01  4.178473663E+01
1.681715651E+01  4.200400162E+01
1.682373213E+01  4.214503098E+01
1.683030775E+01  4.437778473E+01
1.683688338E+01  4.613881683E+01
1.684345900E+01  4.735248947E+01
1.685003462E+01  4.723418808E+01
1.685661024E+01  4.636940384E+01
1.686318587E+01  4.668885803E+01
1.686976149E+01  4.813645554E+01
1.687633711E+01  4.841878891E+01
1.688291274E+01  4.950027466E+01
1.688948836E+01  5.150108719E+01
1.689606398E+01  5.259607697E+01
1.690263961E+01  5.134144974E+01
1.690921523E+01  5.072016525E+01
1.691579085E+01  5.256576157E+01
1.692236648E+01  5.491977692E+01
1.692894210E+01  5.545265579E+01
1.693551772E+01  5.445934296E+01
1.694209335E+01  5.468986130E+01
1.694866897E+01  5.539324570E+01
1.695524459E+01  5.469156265E+01
1.696182022E+01  5.513120270E+01
1.696839584E+01  5.517845535E+01
1.697497146E+01  5.612627792E+01
1.698154709E+01  5.653079224E+01
1.698812271E+01  6.153307343E+01
1.699469833E+01  6.204910278E+01
1.700127396E+01  6.594454956E+01
1.700784958E+01  6.530677032E+01
1.701442520E+01  6.581197357E+01
1.702100083E+01  6.659583282E+01
1.702757645E+01  6.449277496E+01
1.703415207E+01  6.499050903E+01
1.704072770E+01  6.623937225E+01
1.704730332E+01  6.783352661E+01
1.705387894E+01  6.857515717E+01
1.706045457E+01  7.061361694E+01
1.706703019E+01  6.999571991E+01
1.707360581E+01  6.951046753E+01
1.708018144E+01  6.886386871E+01
1.708675706E+01  6.818869019E+01
1.709333268E+01  7.004007721E+01
1.709990831E+01  6.971437836E+01
1.710648393E+01  6.956264496E+01
1.711305955E+01  6.919083405E+01
1.711963518E+01  6.734014130E+01
1.712621080E+01  6.534554291E+01
1.713278642E+01  6.321728897E+01
1.713936205E+01  6.053647232E+01
1.714593767E+01  6.009510803E+01
1.715251329E+01  6.119060135E+01
1.715908892E+01  6.274096680E+01
1.716566454E+01  6.177945709E+01
1.717224016E+01  6.114060593E+01
1.717881578E+01  6.055249786E+01
1.718539141E+01  5.950739288E+01
1.719196703E+01  5.824509811E+01
1.719854265E+01  5.782477188E+01
1.720511828E+01  5.807704544E+01
1.721169390E+01  5.813528442E+01
1.721826952E+01  5.591118240E+01
1.722484515E+01  5.414160919E+01
1.723142077E+01  5.210201263E+01
1.723799639E+01  5.039546967E+01
1.724457202E+01  4.862358475E+01
1.725114764E+01  4.802516174E+01
1.725772326E+01  4.719104767E+01
1.726429889E+01  4.814859390E+01
1.727087451E+01  4.943296814E+01
1.727745013E+01  4.995870972E+01
1.728402576E+01  4.912473679E+01
1.729060138E+01  4.731382370E+01
1.729717700E+01  4.582037735E+01
1.730375263E+01  4.442803955E+01
1.731032825E+01  4.368558502E+01
1.731690387E+01  4.238786697E+01
1.732347950E+01  4.120962524E+01
1.733005512E+01  4.199550629E+01
1.733663074E+01  4.225910187E+01
1.734320637E+01  4.265950394E+01
1.734978199E+01  4.235727692E+01
1.735635761E+01  4.121658707E+01
1.736293324E+01  3.997367859E+01
1.736950886E+01  3.736723709E+01
1.737608448E+01  3.448507309E+01
1.738266011E+01  3.321969604E+01
1.738923573E+01  3.281419754E+01
1.739581135E+01  3.083102608E+01
1.740238698E+01  2.860851097E+01
1.740896260E+01  2.808997154E+01
1.741553822E+01  2.773143959E+01
1.742211385E+01  2.804364204E+01
1.742868947E+01  2.933663750E+01
1.743526509E+01  3.092586327E+01
1.744184072E+01  3.169122696E+01
1.744841634E+01  3.143256950E+01
1.745499196E+01  3.042435074E+01
1.746156759E+01  3.005773926E+01
1.746814321E+01  2.867118454E+01
1.747471883E+01  2.866319656E+01
1.748129446E+01  3.007341003E+01
1.748787008E+01  3.031499863E+01
1.749444570E+01  3.001012421E+01
1.750102132E+01  3.093378258E+01
1.750759695E+01  3.168421364E+01
1.751417257E+01  3.262673950E+01
1.752074819E+01  3.315305328E+01
1.752732382E+01  3.244438934E+01
1.753389944E+01  3.091976357E+01
1.754047506E+01  2.991323280E+01
1.754705069E+01  2.970219231E+01
1.755362631E+01  2.981598473E+01
1.756020193E+01  2.964135551E+01
1.756677756E+01  2.999131393E+01
1.757335318E+01  2.926380730E+01
1.757992880E+01  2.743490028E+01
1.758650443E+01  2.732438660E+01
1.759308005E+01  2.803281403E+01
1.759965567E+01  2.934235001E+01
1.760623130E+01  2.957665825E+01
1.761280692E+01  2.916827393E+01
1.761938254E+01  2.818790817E+01
1.762595817E+01  2.822042084E+01
1.763253379E+01  2.752693939E+01
1.763910941E+01  2.729436111E+01
1.764568504E+01  2.665929604E+01
1.765226066E+01  2.669779778E+01
1.765883628E+01  2.640048218E+01
1.766541191E+01  2.652944756E+01
1.767198753E+01  2.557922745E+01
1.767856315E+01  2.499357414E+01
1.768513878E+01  2.495063782E+01
1.769171440E+01  2.619400024E+01
1.769829002E+01  2.612547112E+01
1.770486565E+01  2.568397713E+01
1.771144127E+01  2.604723740E+01
1.771801689E+01  2.671476364E+01
1.772459252E+01  2.503130150E+01
1.773116814E+01  2.379815674E+01
1.773774376E+01  2.390747070E+01
1.774431939E+01  2.508832169E+01
1.775089501E+01  2.628512955E+01
1.775747063E+01  2.748627472E+01
1.776404626E+01  2.783444405E+01
1.777062188E+01  2.814274788E+01
1.777719750E+01  2.875994682E+01
1.778377313E+01  2.861390495E+01
1.779034875E+01  2.748991013E+01
1.779692437E+01  2.736221313E+01
1.780350000E+01  2.705760002E+01
1.781007562E+01  2.848292542E+01
1.781665124E+01  2.951671410E+01
1.782322687E+01  3.168933296E+01
1.782980249E+01  3.194275284E+01
1.783637811E+01  3.211785507E+01
1.784295373E+01  3.143538094E+01
1.784952936E+01  3.168587875E+01
1.785610498E+01  3.052510834E+01
1.786268060E+01  3.116788483E+01
1.786925623E+01  3.125820732E+01
1.787583185E+01  3.204356384E+01
1.788240747E+01  3.103070831E+01
1.788898310E+01  3.154960632E+01
1.789555872E+01  3.166459084E+01
1.790213434E+01  3.285843658E+01
1.790870997E+01  3.467201233E+01
1.791528559E+01  3.565350723E+01
1.792186121E+01  3.671438217E+01
1.792843684E+01  3.673826599E+01
1.793501246E+01  3.594083405E+01
1.794158808E+01  3.613346100E+01
1.794816371E+01  3.657284546E+01
1.795473933E+01  3.598934555E+01
1.796131495E+01  3.388724899E+01
1.796789058E+01  3.405212402E+01
1.797446620E+01  3.490774536E+01
1.798104182E+01  3.603708649E+01
1.798761745E+01  3.570724106E+01
1.799419307E+01  3.550269699E+01
1.800076869E+01  3.615740204E+01
1.800734432E+01  3.638089752E+01
1.801391994E+01  3.746430969E+01
1.802049556E+01  3.747513962E+01
1.802707119E+01  3.765279770E+01
1.803364681E+01  3.836120987E+01
1.804022243E+01  3.744235229E+01
1.804679806E+01  3.691056442E+01
1.805337368E+01  3.768937683E+01
1.805994930E+01  3.853336716E+01
1.806652493E+01  3.919320297E+01
1.807310055E+01  3.900157166E+01
1.807967617E+01  3.834143448E+01
1.808625180E+01  3.804203033E+01
1.809282742E+01  3.825580597E+01
1.809940304E+01  3.935441971E+01
1.810597867E+01  4.077542114E+01
1.811255429E+01  4.086257172E+01
1.811912991E+01  4.160071945E+01
1.812570554E+01  4.102153778E+01
1.813228116E+01  4.141938019E+01
1.813885678E+01  4.130486679E+01
1.814543241E+01  4.246738815E+01
1.815200803E+01  4.153469849E+01
1.815858365E+01  4.168336105E+01
1.816515927E+01  4.213531494E+01
1.817173490E+01  4.275654984E+01
1.817831052E+01  4.186030579E+01
1.818488614E+01  4.151226425E+01
1.819146177E+01  4.255936432E+01
1.819803739E+01  4.436858749E+01
1.820461301E+01  4.637137985E+01
1.821118864E+01  4.839569855E+01
1.821776426E+01  4.760401154E+01
1.822433988E+01  4.643079376E+01
1.823091551E+01  4.680274200E+01
1.823749113E+01  4.831945419E+01
1.824406675E+01  4.766748810E+01
1.825064238E+01  4.808567810E+01
1.825721800E+01  4.776067352E+01
1.826379362E+01  4.697875595E+01
1.827036925E+01  4.629774094E+01
1.827694487E+01  4.669392014E+01
1.828352049E+01  4.574322891E+01
1.829009612E+01  4.384632111E+01
1.829667174E+01  4.384868240E+01
1.830324736E+01  4.372910309E+01
1.830982299E+01  4.347075653E+01
1.831639861E+01  4.308121490E+01
1.832297423E+01  4.335855103E+01
1.832954986E+01  4.322482681E+01
1.833612548E+01  4.364599991E+01
1.834270110E+01  4.260606003E+01
1.834927673E+01  4.209186172E+01
1.835585235E+01  4.311657715E+01
1.836242797E+01  4.418013000E+01
1.836900360E+01  4.491862488E+01
1.837557922E+01  4.308822632E+01
1.838215484E+01  4.221456909E+01
1.838873047E+01  4.272560120E+01
1.839530609E+01  4.244717026E+01
1.840188171E+01  4.405128860E+01
1.840845734E+01  4.428222656E+01
1.841503296E+01  4.243940735E+01
1.842160858E+01  4.104835129E+01
1.842818421E+01  4.116241455E+01
1.843475983E+01  4.182327271E+01
1.844133545E+01  4.324598312E+01
1.844791108E+01  4.448012543E+01
1.845448670E+01  4.514907455E+01
1.846106232E+01  4.459551620E+01
1.846763795E+01  4.467928696E+01
1.847421357E+01  4.543023300E+01
1.848078919E+01  4.499888229E+01
1.848736482E+01  4.372674942E+01
1.849394044E+01  4.342269897E+01
1.850051606E+01  4.297768784E+01
1.850709168E+01  4.254297256E+01
1.851366731E+01  4.196565247E+01
1.852024293E+01  4.176226425E+01
1.852681855E+01  4.066371155E+01
1.853339418E+01  4.102880478E+01
1.853996980E+01  4.016213226E+01
1.854654542E+01  3.947221756E+01
1.855312105E+01  3.994565964E+01
1.855969667E+01  4.080334473E+01
1.856627229E+01  4.230415344E+01
1.857284792E+01  4.320686340E+01
1.857942354E+01  4.358753967E+01
1.858599916E+01  4.430045319E+01
1.859257479E+01  4.395124435E+01
1.859915041E+01  4.424702072E+01
1.860572603E+01  4.538016510E+01
1.861230166E+01  4.565236664E+01
1.861887728E+01  4.490970612E+01
1.862545290E+01  4.453828812E+01
1.863202853E+01  4.396522141E+01
1.863860415E+01  4.492869186E+01
1.864517977E+01  4.373773956E+01
1.865175540E+01  4.194512558E+01
1.865833102E+01  4.095235443E+01
1.866490664E+01  4.129971695E+01
1.867148227E+01  4.031719208E+01
1.867805789E+01  3.938568497E+01
1.868463351E+01  3.934961700E+01
1.869120914E+01  3.960628891E+01
1.869778476E+01  4.012296295E+01
1.870436038E+01  3.933283234E+01
1.871093601E+01  3.899143982E+01
1.871751163E+01  3.830068970E+01
1.872408725E+01  3.874521637E+01
1.873066288E+01  3.763777924E+01
1.873723850E+01  3.903571701E+01
1.874381412E+01  3.995867920E+01
1.875038975E+01  4.073137283E+01
1.875696537E+01  4.157531738E+01
1.876354099E+01  4.169770050E+01
1.877011662E+01  3.992903519E+01
1.877669224E+01  3.867580032E+01
1.878326786E+01  3.906643677E+01
1.878984349E+01  4.102996826E+01
1.879641911E+01  4.169543457E+01
1.880299473E+01  4.267856598E+01
1.880957036E+01  4.089869308E+01
1.881614598E+01  4.033517075E+01
1.882272160E+01  3.980378342E+01
1.882929722E+01  4.175955963E+01
1.883587285E+01  4.191301727E+01
1.884244847E+01  4.120289993E+01
1.884902409E+01  3.951252747E+01
1.885559972E+01  3.844668579E+01
1.886217534E+01  3.813975525E+01
1.886875096E+01  3.892321777E+01
1.887532659E+01  3.918450928E+01
1.888190221E+01  4.014435577E+01
1.888847783E+01  3.978493881E+01
1.889505346E+01  3.796360779E+01
1.890162908E+01  3.680781174E+01
1.890820470E+01  3.650016403E+01
1.891478033E+01  3.516360474E+01
1.892135595E+01  3.397507477E+01
1.892793157E+01  3.416687775E+01
1.893450720E+01  3.469212723E+01
1.894108282E+01  3.372762299E+01
1.894765844E+01  3.262156296E+01
1.895423407E+01  3.272019196E+01
1.896080969E+01  3.345133972E+01
1.896738531E+01  3.297875595E+01
1.897396094E+01  3.099567413E+01
1.898053656E+01  2.968197823E+01
1.898711218E+01  2.833909607E+01
1.899368781E+01  2.715531731E+01
1.900026343E+01  2.587637329E+01
1.900683905E+01  2.736320877E+01
1.901341468E+01  2.746859741E+01
1.901999030E+01  2.796009827E+01
1.902656592E+01  2.746201134E+01
1.903314155E+01  2.767803383E+01
1.903971717E+01  2.731649208E+01
1.904629279E+01  2.818591309E+01
1.905286842E+01  2.804297638E+01
1.905944404E+01  2.748337364E+01
1.906601966E+01  2.632921219E+01
1.907259529E+01  2.724832153E+01
1.907917091E+01  2.782085037E+01
1.908574653E+01  2.887394333E+01
1.909232216E+01  2.960898209E+01
1.909889778E+01  3.104823112E+01
1.910547340E+01  3.207685471E+01
1.911204903E+01  3.417643738E+01
1.911862465E+01  3.655420303E+01
1.912520027E+01  4.026108551E+01
1.913177590E+01  4.408877182E+01
1.913835152E+01  4.760108185E+01
1.914492714E+01  5.103645325E+01
1.915150276E+01  5.417866135E+01
1.915807839E+01  5.648082733E+01
1.916465401E+01  5.794458389E+01
1.917122963E+01  5.930223846E+01
1.917780526E+01  5.966585159E+01
1.918438088E+01  5.910273743E+01
1.919095650E+01  5.707296371E+01
1.919753213E+01  5.502278900E+01
1.920410775E+01  5.308926773E+01
1.921068337E+01  5.204800415E+01
1.921725900E+01  4.955115128E+01
1.922383462E+01  4.647420120E+01
1.923041024E+01  4.197142029E+01
1.923698587E+01  3.812002182E+01
1.924356149E+01  3.366053391E+01
1.925013711E+01  2.972787666E+01
1.925671274E+01  2.411114883E+01
1.926328836E+01  1.979035568E+01
1.926986398E+01  1.531743240E+01
1.927643961E+01  1.217571354E+01
1.928301523E+01  9.263061523E+00
1.928959085E+01  7.295701027E+00
1.929616648E+01  4.906999588E+00
1.930274210E+01  2.945184469E+00
1.930931772E+01  9.969254136E-01
1.931589335E+01  -5.128788352E-01
1.932246897E+01  -3.227812052E-02
1.932904459E+01  -1.235629898E-03
1.933562022E+01  4.321704805E-01
1.934219584E+01  -1.392339915E-01
1.934877146E+01  -5.323013663E-01
1.935534709E+01  -5.963717699E-01
1.936192271E+01  -2.986575663E-01
1.936849833E+01  7.978218794E-01
1.937507396E+01  9.037863612E-01
1.938164958E+01  -2.640428543E-01
1.938822520E+01  -9.340124130E-01
1.939480083E+01  -3.694818914E-01
1.940137645E+01  1.001205444E+00
1.940795207E+01  1.581500918E-01
1.941452770E+01  -2.700511515E-01
1.942110332E+01  -1.639535576E-01
1.942767894E+01  -2.509818971E-01
1.943425457E+01  2.968606949E-01
1.944083019E+01  1.557900161E-01
1.944740581E+01  -2.150765508E-01
1.945398144E+01  5.348826200E-02
