# == pyFAI calibration ==
# Distance Sample to Detector: 0.400151958433 m
# PONI: 1.472e-01, 1.496e-01 m
# Rotations: -0.001085 0.000539 -0.000000 rad
# 
# == Fit2d calibration ==
# Distance Sample-beamCenter: 400.152 mm
# Center: x=1500.210, y=1474.586 pix
# Tilt: 0.069 deg  TiltPlanRot: 26.426 deg
# 
# Detector Detector	 Spline= None	 PixelSize= 1.000e-04, 1.000e-04 m
#    Detector has a mask: False 
#    Detector has a dark current: False 
#    detector has a flat field: False 
# 
# Wavelength: 4.12969e-11 m
# Mask applied: None
# Dark current applied: None
# Flat field applied: None
# Polarization factor: None
# Normalization factor: None
#
# 2th_deg	 I
6.000256231E+00  -6.717410404E-03
6.006831854E+00  1.864383183E-02
6.013407478E+00  -2.556330338E-02
6.019983101E+00  1.198678836E-01
6.026558724E+00  -2.566248178E-01
6.033134347E+00  1.527829468E-01
6.039709971E+00  -1.908553392E-01
6.046285594E+00  4.075501263E-01
6.052861217E+00  1.986860931E-01
6.059436840E+00  -5.665036440E-01
6.066012464E+00  -5.921582878E-02
6.072588087E+00  -3.482149541E-02
6.079163710E+00  6.329774857E-01
6.085739334E+00  2.915447950E+00
6.092314957E+00  3.855133533E+00
6.098890580E+00  4.590129375E+00
6.105466203E+00  5.644853115E+00
6.112041827E+00  6.668452740E+00
6.118617450E+00  6.052817345E+00
6.125193073E+00  4.109447002E+00
6.131768696E+00  2.258579254E+00
6.138344320E+00  1.448549509E+00
6.144919943E+00  2.616268158E+00
6.151495566E+00  3.222498894E+00
6.158071190E+00  4.204509258E+00
6.164646813E+00  4.272460938E+00
6.171222436E+00  4.371009350E+00
6.177798059E+00  4.724344254E+00
6.184373683E+00  4.282846928E+00
6.190949306E+00  3.591244698E+00
6.197524929E+00  3.687738180E+00
6.204100552E+00  4.677500248E+00
6.210676176E+00  5.620262146E+00
6.217251799E+00  6.314054012E+00
6.223827422E+00  7.676516533E+00
6.230403045E+00  7.031875134E+00
6.236978669E+00  7.366530418E+00
6.243554292E+00  6.534415245E+00
6.250129915E+00  5.185761929E+00
6.256705539E+00  3.914107323E+00
6.263281162E+00  3.216964245E+00
6.269856785E+00  3.162229776E+00
6.276432408E+00  3.072333813E+00
6.283008032E+00  2.619683266E+00
6.289583655E+00  1.926677942E+00
6.296159278E+00  2.528467655E+00
6.302734901E+00  5.170639992E+00
6.309310525E+00  7.001919270E+00
6.315886148E+00  8.277615547E+00
6.322461771E+00  7.877065659E+00
6.329037394E+00  7.918769836E+00
6.335613018E+00  7.021316051E+00
6.342188641E+00  6.787745953E+00
6.348764264E+00  6.864904404E+00
6.355339888E+00  7.755270481E+00
6.361915511E+00  9.418849945E+00
6.368491134E+00  8.546712875E+00
6.375066757E+00  7.293277264E+00
6.381642381E+00  6.671670914E+00
6.388218004E+00  7.562119961E+00
6.394793627E+00  7.400734901E+00
6.401369250E+00  6.477405071E+00
6.407944874E+00  5.942895412E+00
6.414520497E+00  5.461430550E+00
6.421096120E+00  4.217501163E+00
6.427671743E+00  3.818160295E+00
6.434247367E+00  4.219970703E+00
6.440822990E+00  4.317314625E+00
6.447398613E+00  4.166695118E+00
6.453974237E+00  5.150000095E+00
6.460549860E+00  5.794517994E+00
6.467125483E+00  6.018740654E+00
6.473701106E+00  7.171641827E+00
6.480276730E+00  6.963080883E+00
6.486852353E+00  7.850032806E+00
6.493427976E+00  8.899394989E+00
6.500003599E+00  8.919114113E+00
6.506579223E+00  8.475802422E+00
6.513154846E+00  8.428710938E+00
6.519730469E+00  7.796230793E+00
6.526306092E+00  7.861161709E+00
6.532881716E+00  6.424416542E+00
6.539457339E+00  5.633182049E+00
6.546032962E+00  4.684318542E+00
6.552608586E+00  5.540688992E+00
6.559184209E+00  5.045184135E+00
6.565759832E+00  5.459543705E+00
6.572335455E+00  4.302970886E+00
6.578911079E+00  3.837471962E+00
6.585486702E+00  3.921347380E+00
6.592062325E+00  4.548961163E+00
6.598637948E+00  4.781376362E+00
6.605213572E+00  5.292706966E+00
6.611789195E+00  5.103001595E+00
6.618364818E+00  4.100428104E+00
6.624940441E+00  3.506339550E+00
6.631516065E+00  4.031745434E+00
6.638091688E+00  4.961527824E+00
6.644667311E+00  5.888075352E+00
6.651242935E+00  6.148292065E+00
6.657818558E+00  6.654657364E+00
6.664394181E+00  6.422091007E+00
6.670969804E+00  6.735202312E+00
6.677545428E+00  5.430294037E+00
6.684121051E+00  5.993767738E+00
6.690696674E+00  6.118303299E+00
6.697272297E+00  5.678218365E+00
6.703847921E+00  5.054446697E+00
6.710423544E+00  4.244904995E+00
6.716999167E+00  3.987072468E+00
6.723574790E+00  5.212103367E+00
6.730150414E+00  5.398110390E+00
6.736726037E+00  4.985695839E+00
6.743301660E+00  3.556420565E+00
6.749877284E+00  3.997351170E+00
6.756452907E+00  5.616775990E+00
6.763028530E+00  6.892729759E+00
6.769604153E+00  8.961015701E+00
6.776179777E+00  9.889364243E+00
6.782755400E+00  9.691327095E+00
6.789331023E+00  7.542817593E+00
6.795906646E+00  6.009871960E+00
6.802482270E+00  4.531548500E+00
6.809057893E+00  5.707995892E+00
6.815633516E+00  6.077297211E+00
6.822209139E+00  6.061750412E+00
6.828784763E+00  6.124354839E+00
6.835360386E+00  6.219248295E+00
6.841936009E+00  7.247516632E+00
6.848511633E+00  6.600166321E+00
6.855087256E+00  6.588060856E+00
6.861662879E+00  5.941685677E+00
6.868238502E+00  6.809692383E+00
6.874814126E+00  6.989382267E+00
6.881389749E+00  7.848102570E+00
6.887965372E+00  7.455831528E+00
6.894540995E+00  7.430649281E+00
6.901116619E+00  6.812042236E+00
6.907692242E+00  7.618531704E+00
6.914267865E+00  7.771513939E+00
6.920843488E+00  6.393850803E+00
6.927419112E+00  5.024722099E+00
6.933994735E+00  5.430174828E+00
6.940570358E+00  5.904150009E+00
6.947145982E+00  6.989919186E+00
6.953721605E+00  6.768655300E+00
6.960297228E+00  6.410939217E+00
6.966872851E+00  5.227291584E+00
6.973448475E+00  4.879345417E+00
6.980024098E+00  4.611769199E+00
6.986599721E+00  4.424130440E+00
6.993175344E+00  4.709801674E+00
6.999750968E+00  4.585050106E+00
7.006326591E+00  5.099964142E+00
7.012902214E+00  4.754799843E+00
7.019477837E+00  4.121066093E+00
7.026053461E+00  3.325159550E+00
7.032629084E+00  3.853778839E+00
7.039204707E+00  3.142542124E+00
7.045780331E+00  2.517879963E+00
7.052355954E+00  2.476819754E+00
7.058931577E+00  2.983618736E+00
7.065507200E+00  4.543008804E+00
7.072082824E+00  5.569344044E+00
7.078658447E+00  5.480598450E+00
7.085234070E+00  4.899793148E+00
7.091809693E+00  3.323216915E+00
7.098385317E+00  2.657301426E+00
7.104960940E+00  3.971316814E+00
7.111536563E+00  5.925360203E+00
7.118112186E+00  6.123638153E+00
7.124687810E+00  5.429172516E+00
7.131263433E+00  6.000186443E+00
7.137839056E+00  6.801584721E+00
7.144414680E+00  6.325911045E+00
7.150990303E+00  5.064539433E+00
7.157565926E+00  5.198354244E+00
7.164141549E+00  5.565279007E+00
7.170717173E+00  4.945676804E+00
7.177292796E+00  3.842622757E+00
7.183868419E+00  2.914270401E+00
7.190444042E+00  2.400606394E+00
7.197019666E+00  3.268705845E+00
7.203595289E+00  4.013506889E+00
7.210170912E+00  3.974451065E+00
7.216746535E+00  3.166284084E+00
7.223322159E+00  3.165277243E+00
7.229897782E+00  3.770836830E+00
7.236473405E+00  4.387818336E+00
7.243049029E+00  3.706693172E+00
7.249624652E+00  4.278489590E+00
7.256200275E+00  4.359754562E+00
7.262775898E+00  5.317821980E+00
7.269351522E+00  4.857854843E+00
7.275927145E+00  5.497205734E+00
7.282502768E+00  6.076157570E+00
7.289078391E+00  5.844102383E+00
7.295654015E+00  4.288886547E+00
7.302229638E+00  4.167818546E+00
7.308805261E+00  4.693218708E+00
7.315380884E+00  3.499465942E+00
7.321956508E+00  2.936702251E+00
7.328532131E+00  2.145305157E+00
7.335107754E+00  1.511460304E+00
7.341683378E+00  2.469174862E+00
7.348259001E+00  4.136515141E+00
7.354834624E+00  5.049260616E+00
7.361410247E+00  5.130642414E+00
7.367985871E+00  4.487003803E+00
7.374561494E+00  4.282815456E+00
7.381137117E+00  3.975056410E+00
7.387712740E+00  3.739495277E+00
7.394288364E+00  3.003899574E+00
7.400863987E+00  2.223192215E+00
7.407439610E+00  1.644836903E+00
7.414015233E+00  1.120367169E+00
7.420590857E+00  7.316453010E-02
7.427166480E+00  -5.904068351E-01
7.433742103E+00  -6.457931995E-01
7.440317727E+00  -5.341382623E-01
7.446893350E+00  -8.054589480E-02
7.453468973E+00  1.000301838E+00
7.460044596E+00  9.615631700E-01
7.466620220E+00  1.736389875E+00
7.473195843E+00  1.758234262E+00
7.479771466E+00  1.225979447E+00
7.486347089E+00  9.174086452E-01
7.492922713E+00  -1.608998328E-01
7.499498336E+00  6.748379767E-02
7.506073959E+00  8.743209839E-01
7.512649582E+00  1.829968214E+00
7.519225206E+00  2.101220369E+00
7.525800829E+00  2.467661381E+00
7.532376452E+00  3.065307379E+00
7.538952076E+00  3.486699581E+00
7.545527699E+00  4.672010899E+00
7.552103322E+00  4.853374958E+00
7.558678945E+00  4.657911301E+00
7.565254569E+00  4.271538258E+00
7.571830192E+00  5.084722042E+00
7.578405815E+00  5.382418156E+00
7.584981438E+00  6.550122261E+00
7.591557062E+00  7.870990276E+00
7.598132685E+00  9.175742149E+00
7.604708308E+00  1.008485031E+01
7.611283931E+00  1.031615734E+01
7.617859555E+00  1.099420643E+01
7.624435178E+00  1.072568607E+01
7.631010801E+00  9.877749443E+00
7.637586425E+00  9.732319832E+00
7.644162048E+00  9.511726379E+00
7.650737671E+00  8.767627716E+00
7.657313294E+00  7.975496292E+00
7.663888918E+00  8.776568413E+00
7.670464541E+00  1.003839397E+01
7.677040164E+00  9.776473045E+00
7.683615787E+00  8.110800743E+00
7.690191411E+00  5.619388103E+00
7.696767034E+00  4.076547623E+00
7.703342657E+00  3.502697706E+00
7.709918281E+00  4.205381870E+00
7.716493904E+00  4.827123165E+00
7.723069527E+00  5.454310894E+00
7.729645150E+00  4.655775547E+00
7.736220774E+00  5.732789993E+00
7.742796397E+00  7.263012886E+00
7.749372020E+00  6.571681499E+00
7.755947643E+00  6.108073711E+00
7.762523267E+00  5.935741901E+00
7.769098890E+00  6.500576496E+00
7.775674513E+00  7.726019382E+00
7.782250136E+00  9.299683571E+00
7.788825760E+00  1.008399487E+01
7.795401383E+00  9.566869736E+00
7.801977006E+00  9.217676163E+00
7.808552630E+00  8.926189423E+00
7.815128253E+00  8.634920120E+00
7.821703876E+00  8.432367325E+00
7.828279499E+00  1.062187004E+01
7.834855123E+00  1.206339550E+01
7.841430746E+00  1.358321381E+01
7.848006369E+00  1.548756123E+01
7.854581992E+00  1.565443993E+01
7.861157616E+00  1.618644714E+01
7.867733239E+00  1.770130348E+01
7.874308862E+00  2.091144371E+01
7.880884485E+00  2.255565453E+01
7.887460109E+00  2.413393974E+01
7.894035732E+00  2.548857689E+01
7.900611355E+00  2.765860939E+01
7.907186979E+00  3.015230370E+01
7.913762602E+00  3.245644379E+01
7.920338225E+00  3.525701141E+01
7.926913848E+00  3.859790421E+01
7.933489472E+00  4.248492432E+01
7.940065095E+00  4.689115524E+01
7.946640718E+00  5.207532883E+01
7.953216341E+00  5.805252457E+01
7.959791965E+00  6.363762283E+01
7.966367588E+00  7.148047638E+01
7.972943211E+00  7.957860565E+01
7.979518834E+00  8.977375031E+01
7.986094458E+00  1.021083755E+02
7.992670081E+00  1.182660446E+02
7.999245704E+00  1.367081757E+02
8.005821328E+00  1.570578003E+02
8.012396951E+00  1.811913910E+02
8.018972574E+00  2.102237244E+02
8.025548197E+00  2.453110504E+02
8.032123821E+00  2.879231567E+02
8.038699444E+00  3.361181641E+02
8.045275067E+00  3.845225830E+02
8.051850690E+00  4.367575989E+02
8.058426314E+00  4.830581055E+02
8.065001937E+00  5.199349365E+02
8.071577560E+00  5.669667358E+02
8.078153183E+00  6.110256958E+02
8.084728807E+00  6.582861328E+02
8.091304430E+00  6.969064331E+02
8.097880053E+00  7.235481567E+02
8.104455677E+00  7.395469360E+02
8.111031300E+00  7.413739014E+02
8.117606923E+00  7.355907593E+02
8.124182546E+00  7.035568237E+02
8.130758170E+00  6.582750854E+02
8.137333793E+00  5.983213501E+02
8.143909416E+00  5.419548340E+02
8.150485039E+00  4.882863770E+02
8.157060663E+00  4.397740479E+02
8.163636286E+00  3.971273193E+02
8.170211909E+00  3.560761414E+02
8.176787532E+00  3.196566162E+02
8.183363156E+00  2.865903931E+02
8.189938779E+00  2.564761047E+02
8.196514402E+00  2.308771515E+02
8.203090026E+00  2.072998657E+02
8.209665649E+00  1.863882141E+02
8.216241272E+00  1.672197876E+02
8.222816895E+00  1.510245056E+02
8.229392519E+00  1.381157837E+02
8.235968142E+00  1.270370255E+02
8.242543765E+00  1.163091660E+02
8.249119388E+00  1.072441635E+02
8.255695012E+00  9.810416412E+01
8.262270635E+00  8.963179779E+01
8.268846258E+00  8.107505798E+01
8.275421881E+00  7.408088684E+01
8.281997505E+00  6.879670715E+01
8.288573128E+00  6.670881653E+01
8.295148751E+00  6.497441864E+01
8.301724375E+00  6.327417374E+01
8.308299998E+00  5.958804703E+01
8.314875621E+00  5.712405396E+01
8.321451244E+00  5.445934677E+01
8.328026868E+00  5.342304230E+01
8.334602491E+00  5.202981949E+01
8.341178114E+00  5.039493179E+01
8.347753737E+00  4.843736267E+01
8.354329361E+00  4.643010330E+01
8.360904984E+00  4.648598480E+01
8.367480607E+00  4.601033401E+01
8.374056230E+00  4.611061096E+01
8.380631854E+00  4.571558762E+01
8.387207477E+00  4.483800507E+01
8.393783100E+00  4.284461594E+01
8.400358724E+00  3.988146210E+01
8.406934347E+00  3.613707352E+01
8.413509970E+00  3.295426178E+01
8.420085593E+00  2.926226807E+01
8.426661217E+00  2.646200943E+01
8.433236840E+00  2.364678001E+01
8.439812463E+00  2.172480583E+01
8.446388086E+00  1.928497696E+01
8.452963710E+00  1.707242203E+01
8.459539333E+00  1.526781464E+01
8.466114956E+00  1.450787449E+01
8.472690579E+00  1.451769447E+01
8.479266203E+00  1.487099266E+01
8.485841826E+00  1.496423817E+01
8.492417449E+00  1.391312981E+01
8.498993073E+00  1.366148853E+01
8.505568696E+00  1.486064911E+01
8.512144319E+00  1.493440342E+01
8.518719942E+00  1.541054630E+01
8.525295566E+00  1.554440689E+01
8.531871189E+00  1.525049305E+01
8.538446812E+00  1.392085171E+01
8.545022435E+00  1.413991165E+01
8.551598059E+00  1.524356842E+01
8.558173682E+00  1.545297241E+01
8.564749305E+00  1.595607471E+01
8.571324928E+00  1.721182442E+01
8.577900552E+00  1.797360802E+01
8.584476175E+00  1.804169464E+01
8.591051798E+00  1.866410828E+01
8.597627422E+00  1.903907585E+01
8.604203045E+00  1.840096664E+01
8.610778668E+00  1.740895271E+01
8.617354291E+00  1.766313934E+01
8.623929915E+00  1.980269623E+01
8.630505538E+00  2.102490425E+01
8.637081161E+00  2.104756355E+01
8.643656784E+00  2.041416168E+01
8.650232408E+00  2.019309235E+01
8.656808031E+00  1.801525879E+01
8.663383654E+00  1.793637085E+01
8.669959277E+00  1.667523193E+01
8.676534901E+00  1.527828598E+01
8.683110524E+00  1.357469273E+01
8.689686147E+00  1.309820843E+01
8.696261771E+00  1.272877979E+01
8.702837394E+00  1.175602436E+01
8.709413017E+00  9.251786232E+00
8.715988640E+00  7.445137978E+00
8.722564264E+00  4.953819752E+00
8.729139887E+00  3.778873444E+00
8.735715510E+00  3.133741140E+00
8.742291133E+00  3.700610876E+00
8.748866757E+00  3.981492281E+00
8.755442380E+00  4.270871639E+00
8.762018003E+00  3.804148912E+00
8.768593626E+00  5.255195141E+00
8.775169250E+00  7.167018414E+00
8.781744873E+00  8.985451698E+00
8.788320496E+00  9.652419090E+00
8.794896120E+00  9.943333626E+00
8.801471743E+00  1.121270466E+01
8.808047366E+00  1.243857288E+01
8.814622989E+00  1.269418812E+01
8.821198613E+00  1.258404541E+01
8.827774236E+00  1.181761646E+01
8.834349859E+00  1.156091309E+01
8.840925482E+00  1.115084076E+01
8.847501106E+00  9.626452446E+00
8.854076729E+00  8.426700592E+00
8.860652352E+00  8.474909782E+00
8.867227975E+00  9.638254166E+00
8.873803599E+00  1.096847725E+01
8.880379222E+00  1.259935284E+01
8.886954845E+00  1.347080994E+01
8.893530469E+00  1.368342400E+01
8.900106092E+00  1.417322063E+01
8.906681715E+00  1.452417946E+01
8.913257338E+00  1.578073120E+01
8.919832962E+00  1.565772247E+01
8.926408585E+00  1.500769806E+01
8.932984208E+00  1.605918694E+01
8.939559831E+00  1.557245541E+01
8.946135455E+00  1.642545891E+01
8.952711078E+00  1.683843613E+01
8.959286701E+00  1.782899857E+01
8.965862324E+00  1.752365112E+01
8.972437948E+00  1.871100807E+01
8.979013571E+00  2.000244713E+01
8.985589194E+00  2.217243767E+01
8.992164818E+00  2.403743935E+01
8.998740441E+00  2.656089592E+01
9.005316064E+00  2.877656364E+01
9.011891687E+00  3.111810684E+01
9.018467311E+00  3.184633446E+01
9.025042934E+00  3.264492035E+01
9.031618557E+00  3.385329056E+01
9.038194180E+00  3.600618744E+01
9.044769804E+00  3.710515594E+01
9.051345427E+00  3.966443253E+01
9.057921050E+00  4.266358185E+01
9.064496673E+00  4.590150452E+01
9.071072297E+00  4.780649185E+01
9.077647920E+00  4.973213196E+01
9.084223543E+00  5.237282562E+01
9.090799167E+00  5.500255203E+01
9.097374790E+00  5.766971588E+01
9.103950413E+00  6.040073013E+01
9.110526036E+00  6.224642563E+01
9.117101660E+00  6.416191864E+01
9.123677283E+00  6.479032135E+01
9.130252906E+00  6.501348877E+01
9.136828529E+00  6.380410767E+01
9.143404153E+00  6.220711899E+01
9.149979776E+00  6.063855743E+01
9.156555399E+00  5.867264557E+01
9.163131022E+00  5.821857071E+01
9.169706646E+00  5.741451645E+01
9.176282269E+00  5.628001022E+01
9.182857892E+00  5.522373581E+01
9.189433516E+00  5.479939270E+01
9.196009139E+00  5.355970001E+01
9.202584762E+00  5.315992355E+01
9.209160385E+00  5.408685303E+01
9.215736009E+00  5.863832474E+01
9.222311632E+00  6.031724930E+01
9.228887255E+00  6.651081848E+01
9.235462878E+00  7.085474396E+01
9.242038502E+00  7.421474457E+01
9.248614125E+00  7.208592224E+01
9.255189748E+00  7.593944550E+01
9.261765372E+00  7.890031433E+01
9.268340995E+00  8.880541992E+01
9.274916618E+00  1.009360275E+02
9.281492241E+00  1.181432037E+02
9.288067865E+00  1.396349487E+02
9.294643488E+00  1.690748596E+02
9.301219111E+00  2.062564087E+02
9.307794734E+00  2.483636780E+02
9.314370358E+00  2.901437683E+02
9.320945981E+00  3.250835266E+02
9.327521604E+00  3.468880615E+02
9.334097227E+00  3.586423645E+02
9.340672851E+00  3.669924622E+02
9.347248474E+00  3.801771545E+02
9.353824097E+00  3.955324707E+02
9.360399721E+00  4.265447388E+02
9.366975344E+00  4.385436096E+02
9.373550967E+00  4.694593201E+02
9.380126590E+00  4.646991272E+02
9.386702214E+00  4.471517944E+02
9.393277837E+00  3.975053101E+02
9.399853460E+00  3.421254883E+02
9.406429083E+00  2.829640503E+02
9.413004707E+00  2.489145508E+02
9.419580330E+00  2.151006012E+02
9.426155953E+00  1.910754700E+02
9.432731576E+00  1.704612732E+02
9.439307200E+00  1.536393890E+02
9.445882823E+00  1.386948090E+02
9.452458446E+00  1.267071533E+02
9.459034070E+00  1.174728317E+02
9.465609693E+00  1.109074020E+02
9.472185316E+00  1.047486649E+02
9.478760939E+00  9.930667877E+01
9.485336563E+00  9.643986511E+01
9.491912186E+00  9.888013458E+01
9.498487809E+00  1.021299362E+02
9.505063432E+00  1.068801727E+02
9.511639056E+00  1.112924423E+02
9.518214679E+00  1.174384995E+02
9.524790302E+00  1.226747665E+02
9.531365925E+00  1.290583496E+02
9.537941549E+00  1.344729767E+02
9.544517172E+00  1.412511444E+02
9.551092795E+00  1.448195801E+02
9.557668419E+00  1.495737305E+02
9.564244042E+00  1.537435303E+02
9.570819665E+00  1.572200317E+02
9.577395288E+00  1.599661102E+02
9.583970912E+00  1.616862946E+02
9.590546535E+00  1.606939850E+02
9.597122158E+00  1.590106506E+02
9.603697781E+00  1.551738129E+02
9.610273405E+00  1.509481049E+02
9.616849028E+00  1.457880554E+02
9.623424651E+00  1.391897125E+02
9.630000274E+00  1.334601746E+02
9.636575898E+00  1.265583954E+02
9.643151521E+00  1.170839462E+02
9.649727144E+00  1.094113159E+02
9.656302768E+00  1.021796341E+02
9.662878391E+00  9.767259216E+01
9.669454014E+00  9.328126526E+01
9.676029637E+00  8.823710632E+01
9.682605261E+00  8.255231476E+01
9.689180884E+00  7.689974213E+01
9.695756507E+00  7.112068939E+01
9.702332130E+00  6.603500366E+01
9.708907754E+00  6.063926315E+01
9.715483377E+00  5.542909622E+01
9.722059000E+00  5.094943619E+01
9.728634623E+00  4.542540741E+01
9.735210247E+00  4.001962662E+01
9.741785870E+00  3.473260117E+01
9.748361493E+00  3.255020142E+01
9.754937117E+00  3.108475113E+01
9.761512740E+00  3.028500748E+01
9.768088363E+00  2.921203423E+01
9.774663986E+00  2.743274307E+01
9.781239610E+00  2.547987556E+01
9.787815233E+00  2.420159340E+01
9.794390856E+00  2.296119690E+01
9.800966479E+00  2.231924438E+01
9.807542103E+00  2.191783714E+01
9.814117726E+00  2.164956284E+01
9.820693349E+00  2.267994690E+01
9.827268972E+00  2.362324715E+01
9.833844596E+00  2.384859657E+01
9.840420219E+00  2.589211655E+01
9.846995842E+00  2.910730362E+01
9.853571466E+00  3.088476181E+01
9.860147089E+00  3.383921051E+01
9.866722712E+00  3.682168579E+01
9.873298335E+00  4.196936035E+01
9.879873959E+00  4.664693451E+01
9.886449582E+00  5.028063202E+01
9.893025205E+00  5.445535660E+01
9.899600828E+00  5.810367203E+01
9.906176452E+00  6.006682205E+01
9.912752075E+00  6.305324173E+01
9.919327698E+00  6.763854218E+01
9.925903321E+00  7.246231079E+01
9.932478945E+00  7.751029968E+01
9.939054568E+00  8.325266266E+01
9.945630191E+00  8.852574158E+01
9.952205815E+00  9.449938965E+01
9.958781438E+00  1.008161011E+02
9.965357061E+00  1.072858734E+02
9.971932684E+00  1.131298141E+02
9.978508308E+00  1.198898468E+02
9.985083931E+00  1.251269379E+02
9.991659554E+00  1.294367218E+02
9.998235177E+00  1.342200165E+02
1.000481080E+01  1.384386749E+02
1.001138642E+01  1.425784760E+02
1.001796205E+01  1.470910339E+02
1.002453767E+01  1.511965332E+02
1.003111329E+01  1.541805573E+02
1.003768892E+01  1.538150330E+02
1.004426454E+01  1.527845306E+02
1.005084016E+01  1.491881256E+02
1.005741579E+01  1.454901428E+02
1.006399141E+01  1.408175354E+02
1.007056703E+01  1.347191315E+02
1.007714266E+01  1.275459671E+02
1.008371828E+01  1.185954285E+02
1.009029390E+01  1.082952423E+02
1.009686953E+01  9.760537720E+01
1.010344515E+01  8.791597748E+01
1.011002077E+01  8.048242950E+01
1.011659640E+01  7.483159637E+01
1.012317202E+01  7.094543457E+01
1.012974764E+01  6.758226013E+01
1.013632327E+01  6.360732651E+01
1.014289889E+01  5.979066849E+01
1.014947451E+01  5.468601608E+01
1.015605014E+01  5.084025574E+01
1.016262576E+01  4.611571503E+01
1.016920138E+01  4.367353439E+01
1.017577701E+01  4.063774490E+01
1.018235263E+01  3.845854950E+01
1.018892825E+01  3.777608871E+01
1.019550388E+01  3.724563217E+01
1.020207950E+01  3.593846130E+01
1.020865512E+01  3.480036926E+01
1.021523075E+01  3.408767700E+01
1.022180637E+01  3.302156067E+01
1.022838199E+01  3.286321640E+01
1.023495762E+01  3.280792618E+01
1.024153324E+01  3.359295273E+01
1.024810886E+01  3.479539490E+01
1.025468448E+01  3.550407028E+01
1.026126011E+01  3.550505066E+01
1.026783573E+01  3.477825165E+01
1.027441135E+01  3.438708115E+01
1.028098698E+01  3.359708786E+01
1.028756260E+01  3.269628525E+01
1.029413822E+01  3.157715988E+01
1.030071385E+01  3.232263565E+01
1.030728947E+01  3.228907394E+01
1.031386509E+01  3.219902802E+01
1.032044072E+01  3.190495110E+01
1.032701634E+01  3.084570885E+01
1.033359196E+01  3.058273125E+01
1.034016759E+01  3.053974724E+01
1.034674321E+01  2.960045624E+01
1.035331883E+01  2.901866722E+01
1.035989446E+01  2.718540192E+01
1.036647008E+01  2.641356468E+01
1.037304570E+01  2.567181587E+01
1.037962133E+01  2.493371201E+01
1.038619695E+01  2.370015144E+01
1.039277257E+01  2.193883896E+01
1.039934820E+01  1.962334061E+01
1.040592382E+01  1.842205620E+01
1.041249944E+01  1.664841080E+01
1.041907507E+01  1.616319656E+01
1.042565069E+01  1.609772682E+01
1.043222631E+01  1.538946724E+01
1.043880194E+01  1.446954823E+01
1.044537756E+01  1.387262154E+01
1.045195318E+01  1.245951748E+01
1.045852881E+01  1.227857399E+01
1.046510443E+01  1.092598724E+01
1.047168005E+01  1.188370228E+01
1.047825568E+01  1.224841785E+01
1.048483130E+01  1.134486294E+01
1.049140692E+01  1.014865303E+01
1.049798255E+01  1.026724243E+01
1.050455817E+01  1.084861755E+01
1.051113379E+01  1.190893364E+01
1.051770942E+01  1.268016720E+01
1.052428504E+01  1.228247833E+01
1.053086066E+01  1.180282974E+01
1.053743629E+01  1.078228092E+01
1.054401191E+01  1.039031219E+01
1.055058753E+01  8.689466476E+00
1.055716316E+01  8.383885384E+00
1.056373878E+01  9.399389267E+00
1.057031440E+01  1.173161697E+01
1.057689002E+01  1.021409130E+01
1.058346565E+01  8.017734528E+00
1.059004127E+01  6.974593163E+00
1.059661689E+01  6.420612812E+00
1.060319252E+01  6.623371601E+00
1.060976814E+01  6.754247665E+00
1.061634376E+01  6.832265854E+00
1.062291939E+01  7.681617260E+00
1.062949501E+01  7.402850628E+00
1.063607063E+01  6.421209335E+00
1.064264626E+01  6.717592239E+00
1.064922188E+01  7.908139706E+00
1.065579750E+01  8.975193024E+00
1.066237313E+01  9.793171883E+00
1.066894875E+01  1.142544937E+01
1.067552437E+01  1.147396374E+01
1.068210000E+01  9.689567566E+00
1.068867562E+01  6.980818748E+00
1.069525124E+01  5.685953140E+00
1.070182687E+01  4.652962685E+00
1.070840249E+01  3.273778200E+00
1.071497811E+01  3.177137375E+00
1.072155374E+01  4.209057331E+00
1.072812936E+01  5.953342915E+00
1.073470498E+01  7.367327690E+00
1.074128061E+01  6.797014236E+00
1.074785623E+01  5.278831005E+00
1.075443185E+01  4.585045815E+00
1.076100748E+01  4.804330349E+00
1.076758310E+01  4.586392403E+00
1.077415872E+01  3.768440723E+00
1.078073435E+01  3.707218170E+00
1.078730997E+01  3.641306877E+00
1.079388559E+01  3.979215384E+00
1.080046122E+01  3.389223814E+00
1.080703684E+01  2.041571856E+00
1.081361246E+01  1.946350813E+00
1.082018809E+01  1.481824756E+00
1.082676371E+01  5.101537108E-01
1.083333933E+01  5.990747809E-01
1.083991496E+01  1.992117286E+00
1.084649058E+01  3.299033165E+00
1.085306620E+01  2.727243662E+00
1.085964183E+01  1.618947506E+00
1.086621745E+01  9.682133198E-01
1.087279307E+01  9.888494611E-01
1.087936870E+01  8.414556384E-01
1.088594432E+01  -6.774855405E-02
1.089251994E+01  -7.812599540E-01
1.089909556E+01  -1.285897136E+00
1.090567119E+01  1.239183620E-01
1.091224681E+01  3.603217602E-01
1.091882243E+01  1.451184511E+00
1.092539806E+01  1.965895295E+00
1.093197368E+01  3.532449245E+00
1.093854930E+01  3.642134666E+00
1.094512493E+01  4.498166084E+00
1.095170055E+01  3.643123865E+00
1.095827617E+01  3.221161127E+00
1.096485180E+01  2.715796232E+00
1.097142742E+01  1.667684436E+00
1.097800304E+01  8.245198131E-01
1.098457867E+01  1.853437185E+00
1.099115429E+01  3.871283531E+00
1.099772991E+01  4.936805248E+00
1.100430554E+01  5.980823517E+00
1.101088116E+01  5.961992741E+00
1.101745678E+01  6.092876911E+00
1.102403241E+01  6.286234379E+00
1.103060803E+01  6.174551964E+00
1.103718365E+01  5.768731117E+00
1.104375928E+01  4.887778282E+00
1.105033490E+01  3.913683891E+00
1.105691052E+01  3.315349817E+00
1.106348615E+01  3.213039875E+00
1.107006177E+01  3.887169123E+00
1.107663739E+01  5.040509701E+00
1.108321302E+01  4.839694023E+00
1.108978864E+01  4.040704250E+00
1.109636426E+01  4.443457603E+00
1.110293989E+01  4.099819660E+00
1.110951551E+01  4.973266125E+00
1.111609113E+01  6.811444759E+00
1.112266676E+01  7.856135845E+00
1.112924238E+01  8.735340118E+00
1.113581800E+01  7.679100037E+00
1.114239363E+01  6.898407936E+00
1.114896925E+01  6.375729561E+00
1.115554487E+01  6.369890690E+00
1.116212050E+01  6.435606480E+00
1.116869612E+01  5.928853989E+00
1.117527174E+01  6.749546528E+00
1.118184737E+01  7.720443249E+00
1.118842299E+01  9.107167244E+00
1.119499861E+01  9.266641617E+00
1.120157424E+01  8.746216774E+00
1.120814986E+01  6.920871258E+00
1.121472548E+01  6.163627625E+00
1.122130111E+01  6.824553967E+00
1.122787673E+01  6.531059742E+00
1.123445235E+01  7.103909016E+00
1.124102797E+01  7.323825836E+00
1.124760360E+01  7.550633907E+00
1.125417922E+01  8.761342049E+00
1.126075484E+01  1.045786381E+01
1.126733047E+01  1.117824173E+01
1.127390609E+01  1.059040451E+01
1.128048171E+01  1.152292538E+01
1.128705734E+01  1.140643120E+01
1.129363296E+01  1.280826759E+01
1.130020858E+01  1.383094025E+01
1.130678421E+01  1.468730927E+01
1.131335983E+01  1.449746418E+01
1.131993545E+01  1.433706379E+01
1.132651108E+01  1.355130482E+01
1.133308670E+01  1.238772678E+01
1.133966232E+01  1.144690609E+01
1.134623795E+01  1.163068771E+01
1.135281357E+01  1.242881584E+01
1.135938919E+01  1.249558640E+01
1.136596482E+01  1.360981369E+01
1.137254044E+01  1.392336178E+01
1.137911606E+01  1.404610634E+01
1.138569169E+01  1.322415924E+01
1.139226731E+01  1.341603565E+01
1.139884293E+01  1.314519787E+01
1.140541856E+01  1.489165401E+01
1.141199418E+01  1.512955475E+01
1.141856980E+01  1.616947937E+01
1.142514543E+01  1.596263599E+01
1.143172105E+01  1.631081963E+01
1.143829667E+01  1.582979012E+01
1.144487230E+01  1.487945271E+01
1.145144792E+01  1.588416386E+01
1.145802354E+01  1.657296944E+01
1.146459917E+01  1.732921028E+01
1.147117479E+01  1.852695465E+01
1.147775041E+01  1.970628166E+01
1.148432604E+01  2.007426071E+01
1.149090166E+01  2.130622864E+01
1.149747728E+01  2.157946587E+01
1.150405291E+01  2.110299492E+01
1.151062853E+01  1.977186966E+01
1.151720415E+01  1.904657173E+01
1.152377978E+01  1.877625275E+01
1.153035540E+01  1.912549019E+01
1.153693102E+01  1.989069939E+01
1.154350665E+01  2.089416695E+01
1.155008227E+01  2.029997444E+01
1.155665789E+01  1.979319954E+01
1.156323351E+01  2.022200203E+01
1.156980914E+01  1.955172539E+01
1.157638476E+01  1.945864868E+01
1.158296038E+01  2.009659004E+01
1.158953601E+01  1.959543419E+01
1.159611163E+01  1.869688416E+01
1.160268725E+01  1.769488716E+01
1.160926288E+01  1.700789833E+01
1.161583850E+01  1.611589432E+01
1.162241412E+01  1.508186054E+01
1.162898975E+01  1.465041924E+01
1.163556537E+01  1.343191719E+01
1.164214099E+01  1.349031067E+01
1.164871662E+01  1.431240940E+01
1.165529224E+01  1.375513840E+01
1.166186786E+01  1.301136208E+01
1.166844349E+01  1.317872810E+01
1.167501911E+01  1.384658527E+01
1.168159473E+01  1.313211536E+01
1.168817036E+01  1.222476673E+01
1.169474598E+01  1.183498287E+01
1.170132160E+01  1.164977455E+01
1.170789723E+01  1.168964863E+01
1.171447285E+01  1.153370571E+01
1.172104847E+01  1.048322010E+01
1.172762410E+01  9.757431984E+00
1.173419972E+01  8.151272774E+00
1.174077534E+01  6.622268200E+00
1.174735097E+01  5.502949715E+00
1.175392659E+01  5.798702240E+00
1.176050221E+01  6.337176323E+00
1.176707784E+01  6.876691341E+00
1.177365346E+01  9.111114502E+00
1.178022908E+01  9.408142090E+00
1.178680471E+01  9.721412659E+00
1.179338033E+01  9.443040848E+00
1.179995595E+01  8.901179314E+00
1.180653158E+01  7.930817127E+00
1.181310720E+01  8.000735283E+00
1.181968282E+01  8.927859306E+00
1.182625845E+01  1.017755508E+01
1.183283407E+01  1.077426910E+01
1.183940969E+01  1.098610210E+01
1.184598532E+01  1.297129345E+01
1.185256094E+01  1.265028763E+01
1.185913656E+01  1.187663555E+01
1.186571219E+01  9.204571724E+00
1.187228781E+01  7.750342846E+00
1.187886343E+01  7.399236202E+00
1.188543906E+01  8.754801750E+00
1.189201468E+01  8.704768181E+00
1.189859030E+01  8.909811974E+00
1.190516592E+01  8.591644287E+00
1.191174155E+01  8.551074982E+00
1.191831717E+01  8.533250809E+00
1.192489279E+01  9.050406456E+00
1.193146842E+01  9.723659515E+00
1.193804404E+01  1.062823105E+01
1.194461966E+01  1.133982563E+01
1.195119529E+01  1.118268299E+01
1.195777091E+01  1.012264347E+01
1.196434653E+01  9.769099236E+00
1.197092216E+01  8.180171967E+00
1.197749778E+01  8.160562515E+00
1.198407340E+01  9.602863312E+00
1.199064903E+01  1.174292469E+01
1.199722465E+01  1.202900028E+01
1.200380027E+01  1.078971291E+01
1.201037590E+01  9.235030174E+00
1.201695152E+01  9.097871780E+00
1.202352714E+01  9.770332336E+00
1.203010277E+01  1.005320072E+01
1.203667839E+01  9.297067642E+00
1.204325401E+01  9.699205399E+00
1.204982964E+01  1.009653187E+01
1.205640526E+01  1.145731640E+01
1.206298088E+01  1.297492409E+01
1.206955651E+01  1.239301205E+01
1.207613213E+01  1.216324902E+01
1.208270775E+01  1.096239948E+01
1.208928338E+01  1.129291439E+01
1.209585900E+01  1.187892437E+01
1.210243462E+01  1.130393696E+01
1.210901025E+01  9.786225319E+00
1.211558587E+01  9.020139694E+00
1.212216149E+01  9.316729546E+00
1.212873712E+01  9.897690773E+00
1.213531274E+01  1.147251606E+01
1.214188836E+01  1.247676945E+01
1.214846399E+01  1.425031853E+01
1.215503961E+01  1.492404461E+01
1.216161523E+01  1.366740513E+01
1.216819086E+01  1.280074024E+01
1.217476648E+01  1.353599072E+01
1.218134210E+01  1.326527596E+01
1.218791773E+01  1.280747318E+01
1.219449335E+01  1.171437359E+01
1.220106897E+01  1.099967957E+01
1.220764460E+01  1.193491173E+01
1.221422022E+01  1.288729095E+01
1.222079584E+01  1.232999802E+01
1.222737146E+01  1.074793148E+01
1.223394709E+01  1.054737949E+01
1.224052271E+01  1.169370937E+01
1.224709833E+01  1.086176300E+01
1.225367396E+01  1.031573772E+01
1.226024958E+01  1.041260433E+01
1.226682520E+01  1.126421547E+01
1.227340083E+01  1.375830173E+01
1.227997645E+01  1.657116699E+01
1.228655207E+01  1.794308281E+01
1.229312770E+01  1.935112953E+01
1.229970332E+01  1.935247231E+01
1.230627894E+01  1.938512611E+01
1.231285457E+01  1.906728935E+01
1.231943019E+01  1.787506104E+01
1.232600581E+01  1.748864555E+01
1.233258144E+01  1.834117317E+01
1.233915706E+01  2.097563744E+01
1.234573268E+01  2.220553589E+01
1.235230831E+01  2.367102432E+01
1.235888393E+01  2.543071938E+01
1.236545955E+01  2.753981209E+01
1.237203518E+01  2.827614975E+01
1.237861080E+01  2.832675743E+01
1.238518642E+01  2.776782227E+01
1.239176205E+01  2.786449242E+01
1.239833767E+01  2.903913879E+01
1.240491329E+01  2.911501312E+01
1.241148892E+01  3.181917763E+01
1.241806454E+01  3.348854828E+01
1.242464016E+01  3.440145493E+01
1.243121579E+01  3.510770798E+01
1.243779141E+01  3.659608078E+01
1.244436703E+01  3.853942871E+01
1.245094266E+01  3.869605637E+01
1.245751828E+01  3.929644012E+01
1.246409390E+01  3.980054474E+01
1.247066953E+01  4.064879990E+01
1.247724515E+01  3.997549057E+01
1.248382077E+01  4.014390564E+01
1.249039640E+01  3.994750595E+01
1.249697202E+01  4.047516632E+01
1.250354764E+01  4.138949203E+01
1.251012327E+01  4.276421738E+01
1.251669889E+01  4.351342392E+01
1.252327451E+01  4.375136948E+01
1.252985014E+01  4.332231140E+01
1.253642576E+01  4.375946426E+01
1.254300138E+01  4.355698395E+01
1.254957700E+01  4.405570221E+01
1.255615263E+01  4.347048187E+01
1.256272825E+01  4.419636154E+01
1.256930387E+01  4.542086029E+01
1.257587950E+01  4.710005188E+01
1.258245512E+01  4.857233429E+01
1.258903074E+01  5.006380844E+01
1.259560637E+01  5.108475113E+01
1.260218199E+01  5.344963837E+01
1.260875761E+01  5.548075867E+01
1.261533324E+01  5.630216217E+01
1.262190886E+01  5.858868408E+01
1.262848448E+01  5.970899582E+01
1.263506011E+01  6.102104187E+01
1.264163573E+01  6.164300537E+01
1.264821135E+01  6.416915131E+01
1.265478698E+01  6.593105316E+01
1.266136260E+01  6.628469086E+01
1.266793822E+01  6.853038788E+01
1.267451385E+01  7.098017120E+01
1.268108947E+01  7.239968872E+01
1.268766509E+01  7.193447876E+01
1.269424072E+01  7.234725189E+01
1.270081634E+01  7.386899567E+01
1.270739196E+01  7.592890930E+01
1.271396759E+01  7.761589050E+01
1.272054321E+01  7.830739594E+01
1.272711883E+01  7.850977325E+01
1.273369446E+01  7.909951782E+01
1.274027008E+01  7.895944214E+01
1.274684570E+01  7.747578430E+01
1.275342133E+01  7.509728241E+01
1.275999695E+01  7.186837769E+01
1.276657257E+01  6.932666779E+01
1.277314820E+01  6.785887146E+01
1.277972382E+01  6.643618774E+01
1.278629944E+01  6.507080841E+01
1.279287507E+01  6.252738190E+01
1.279945069E+01  6.061401367E+01
1.280602631E+01  5.967102051E+01
1.281260194E+01  5.949869537E+01
1.281917756E+01  5.863999176E+01
1.282575318E+01  5.813103485E+01
1.283232881E+01  5.680042648E+01
1.283890443E+01  5.490449524E+01
1.284548005E+01  5.114294434E+01
1.285205568E+01  4.850305939E+01
1.285863130E+01  4.614400482E+01
1.286520692E+01  4.469321442E+01
1.287178255E+01  4.214920044E+01
1.287835817E+01  4.071459579E+01
1.288493379E+01  3.980636978E+01
1.289150941E+01  3.948945618E+01
1.289808504E+01  3.765641785E+01
1.290466066E+01  3.691857147E+01
1.291123628E+01  3.539358139E+01
1.291781191E+01  3.405311584E+01
1.292438753E+01  3.169746208E+01
1.293096315E+01  3.055072784E+01
1.293753878E+01  2.879064560E+01
1.294411440E+01  2.692111015E+01
1.295069002E+01  2.610716057E+01
1.295726565E+01  2.644302940E+01
1.296384127E+01  2.614258003E+01
1.297041689E+01  2.575952530E+01
1.297699252E+01  2.646964645E+01
1.298356814E+01  2.719042397E+01
1.299014376E+01  2.868357849E+01
1.299671939E+01  2.873231888E+01
1.300329501E+01  2.934006691E+01
1.300987063E+01  3.071092796E+01
1.301644626E+01  3.093036079E+01
1.302302188E+01  3.122004890E+01
1.302959750E+01  3.163175774E+01
1.303617313E+01  3.229293823E+01
1.304274875E+01  3.279490662E+01
1.304932437E+01  3.369138336E+01
1.305590000E+01  3.506147385E+01
1.306247562E+01  3.785196304E+01
1.306905124E+01  4.026794434E+01
1.307562687E+01  4.307699585E+01
1.308220249E+01  4.555256271E+01
1.308877811E+01  4.896271896E+01
1.309535374E+01  5.180062866E+01
1.310192936E+01  5.571913147E+01
1.310850498E+01  6.053952026E+01
1.311508061E+01  6.586042786E+01
1.312165623E+01  7.068526459E+01
1.312823185E+01  7.586949921E+01
1.313480748E+01  8.238579559E+01
1.314138310E+01  8.815845490E+01
1.314795872E+01  9.505270386E+01
1.315453435E+01  1.042125854E+02
1.316110997E+01  1.149579010E+02
1.316768559E+01  1.281148224E+02
1.317426122E+01  1.413669128E+02
1.318083684E+01  1.568005981E+02
1.318741246E+01  1.706731720E+02
1.319398809E+01  1.873703766E+02
1.320056371E+01  2.030782166E+02
1.320713933E+01  2.189846497E+02
1.321371495E+01  2.316414185E+02
1.322029058E+01  2.447569885E+02
1.322686620E+01  2.562287903E+02
1.323344182E+01  2.668400269E+02
1.324001745E+01  2.755505981E+02
1.324659307E+01  2.839879456E+02
1.325316869E+01  2.898878479E+02
1.325974432E+01  2.930242310E+02
1.326631994E+01  2.904297791E+02
1.327289556E+01  2.813217468E+02
1.327947119E+01  2.686063232E+02
1.328604681E+01  2.521101685E+02
1.329262243E+01  2.353034821E+02
1.329919806E+01  2.178649139E+02
1.330577368E+01  2.013691559E+02
1.331234930E+01  1.855783997E+02
1.331892493E+01  1.712465210E+02
1.332550055E+01  1.596249542E+02
1.333207617E+01  1.478855591E+02
1.333865180E+01  1.362451172E+02
1.334522742E+01  1.245346527E+02
1.335180304E+01  1.148474121E+02
1.335837867E+01  1.052883606E+02
1.336495429E+01  9.697662354E+01
1.337152991E+01  9.073493958E+01
1.337810554E+01  8.452716827E+01
1.338468116E+01  7.676541138E+01
1.339125678E+01  6.916645050E+01
1.339783241E+01  6.271514511E+01
1.340440803E+01  5.747154999E+01
1.341098365E+01  5.262706757E+01
1.341755928E+01  4.757817459E+01
1.342413490E+01  4.421355057E+01
1.343071052E+01  4.050144958E+01
1.343728615E+01  3.833640289E+01
1.344386177E+01  3.484244156E+01
1.345043739E+01  3.257620621E+01
1.345701302E+01  2.834726334E+01
1.346358864E+01  2.607114983E+01
1.347016426E+01  2.517316055E+01
1.347673989E+01  2.382419395E+01
1.348331551E+01  2.107259560E+01
1.348989113E+01  1.936465645E+01
1.349646676E+01  1.906609917E+01
1.350304238E+01  1.801335144E+01
1.350961800E+01  1.792565155E+01
1.351619363E+01  1.709352684E+01
1.352276925E+01  1.596082211E+01
1.352934487E+01  1.554902077E+01
1.353592050E+01  1.478536224E+01
1.354249612E+01  1.373771286E+01
1.354907174E+01  1.170635796E+01
1.355564736E+01  9.996953011E+00
1.356222299E+01  9.218373299E+00
1.356879861E+01  1.117236519E+01
1.357537423E+01  1.266946125E+01
1.358194986E+01  1.296941090E+01
1.358852548E+01  1.267668915E+01
1.359510110E+01  1.089528179E+01
1.360167673E+01  1.048258972E+01
1.360825235E+01  1.092296505E+01
1.361482797E+01  1.072859192E+01
1.362140360E+01  1.033157444E+01
1.362797922E+01  1.097798061E+01
1.363455484E+01  1.080791950E+01
1.364113047E+01  1.128376579E+01
1.364770609E+01  1.292990398E+01
1.365428171E+01  1.341818047E+01
1.366085734E+01  1.266897583E+01
1.366743296E+01  1.223157501E+01
1.367400858E+01  1.187889767E+01
1.368058421E+01  1.127497578E+01
1.368715983E+01  1.166685009E+01
1.369373545E+01  1.318486118E+01
1.370031108E+01  1.408533001E+01
1.370688670E+01  1.548785496E+01
1.371346232E+01  1.567317200E+01
1.372003795E+01  1.633461380E+01
1.372661357E+01  1.740867805E+01
1.373318919E+01  1.849397659E+01
1.373976482E+01  1.981216621E+01
1.374634044E+01  2.045014000E+01
1.375291606E+01  2.250407028E+01
1.375949169E+01  2.557843208E+01
1.376606731E+01  2.755895615E+01
1.377264293E+01  2.825812531E+01
1.377921856E+01  2.831460190E+01
1.378579418E+01  2.900718498E+01
1.379236980E+01  3.086663055E+01
1.379894543E+01  3.463414001E+01
1.380552105E+01  3.771303558E+01
1.381209667E+01  3.925711823E+01
1.381867230E+01  4.075564957E+01
1.382524792E+01  4.236194992E+01
1.383182354E+01  4.319662476E+01
1.383839917E+01  4.312393951E+01
1.384497479E+01  4.372251129E+01
1.385155041E+01  4.444400787E+01
1.385812604E+01  4.556089401E+01
1.386470166E+01  4.677483749E+01
1.387127728E+01  4.819717789E+01
1.387785290E+01  5.027665329E+01
1.388442853E+01  5.152694321E+01
1.389100415E+01  5.168682098E+01
1.389757977E+01  5.097407532E+01
1.390415540E+01  5.072074509E+01
1.391073102E+01  5.087116623E+01
1.391730664E+01  5.064995956E+01
1.392388227E+01  4.935595703E+01
1.393045789E+01  4.757217026E+01
1.393703351E+01  4.590260696E+01
1.394360914E+01  4.499228668E+01
1.395018476E+01  4.379823685E+01
1.395676038E+01  4.253726196E+01
1.396333601E+01  4.074303818E+01
1.396991163E+01  3.980326462E+01
1.397648725E+01  3.943814468E+01
1.398306288E+01  3.909640121E+01
1.398963850E+01  3.934930801E+01
1.399621412E+01  3.810945511E+01
1.400278975E+01  3.584362411E+01
1.400936537E+01  3.321731949E+01
1.401594099E+01  3.133551025E+01
1.402251662E+01  3.013811493E+01
1.402909224E+01  3.015050507E+01
1.403566786E+01  2.809042740E+01
1.404224349E+01  2.746616173E+01
1.404881911E+01  2.682016182E+01
1.405539473E+01  2.679791069E+01
1.406197036E+01  2.599654770E+01
1.406854598E+01  2.535354805E+01
1.407512160E+01  2.412864685E+01
1.408169723E+01  2.321488380E+01
1.408827285E+01  2.206486702E+01
1.409484847E+01  2.228892136E+01
1.410142410E+01  2.178545570E+01
1.410799972E+01  2.071215820E+01
1.411457534E+01  2.110318565E+01
1.412115097E+01  2.150001335E+01
1.412772659E+01  2.065066719E+01
1.413430221E+01  1.831342316E+01
1.414087784E+01  1.807664108E+01
1.414745346E+01  1.881334877E+01
1.415402908E+01  1.944003296E+01
1.416060471E+01  1.962025070E+01
1.416718033E+01  1.942772102E+01
1.417375595E+01  1.987756729E+01
1.418033158E+01  2.096880531E+01
1.418690720E+01  2.286500168E+01
1.419348282E+01  2.207054710E+01
1.420005844E+01  2.095067024E+01
1.420663407E+01  1.882470894E+01
1.421320969E+01  1.876444054E+01
1.421978531E+01  1.846664619E+01
1.422636094E+01  1.754656410E+01
1.423293656E+01  1.712920380E+01
1.423951218E+01  1.578634930E+01
1.424608781E+01  1.572357750E+01
1.425266343E+01  1.570603752E+01
1.425923905E+01  1.735678673E+01
1.426581468E+01  1.860796928E+01
1.427239030E+01  1.918372154E+01
1.427896592E+01  1.926081276E+01
1.428554155E+01  1.842471123E+01
1.429211717E+01  1.777210999E+01
1.429869279E+01  1.823759651E+01
1.430526842E+01  1.841835213E+01
1.431184404E+01  1.951458740E+01
1.431841966E+01  1.920844460E+01
1.432499529E+01  1.656634521E+01
1.433157091E+01  1.636320114E+01
1.433814653E+01  1.688808823E+01
1.434472216E+01  1.840615082E+01
1.435129778E+01  1.943253326E+01
1.435787340E+01  2.034810066E+01
1.436444903E+01  1.854788017E+01
1.437102465E+01  1.715150070E+01
1.437760027E+01  1.713503647E+01
1.438417590E+01  1.799702263E+01
1.439075152E+01  1.784390068E+01
1.439732714E+01  1.754871368E+01
1.440390277E+01  1.785022163E+01
1.441047839E+01  1.841589546E+01
1.441705401E+01  1.739953423E+01
1.442362964E+01  1.575668907E+01
1.443020526E+01  1.455277729E+01
1.443678088E+01  1.467645264E+01
1.444335651E+01  1.515894890E+01
1.444993213E+01  1.606469917E+01
1.445650775E+01  1.665735626E+01
1.446308338E+01  1.690564919E+01
1.446965900E+01  1.606492615E+01
1.447623462E+01  1.580997086E+01
1.448281025E+01  1.607142639E+01
1.448938587E+01  1.559731579E+01
1.449596149E+01  1.606828117E+01
1.450253712E+01  1.626408768E+01
1.450911274E+01  1.595375633E+01
1.451568836E+01  1.465045166E+01
1.452226399E+01  1.318472195E+01
1.452883961E+01  1.173037815E+01
1.453541523E+01  1.176445389E+01
1.454199085E+01  1.241340256E+01
1.454856648E+01  1.330514050E+01
1.455514210E+01  1.534932709E+01
1.456171772E+01  1.454009438E+01
1.456829335E+01  1.333202839E+01
1.457486897E+01  1.172170830E+01
1.458144459E+01  1.180679035E+01
1.458802022E+01  1.234020615E+01
1.459459584E+01  1.347918892E+01
1.460117146E+01  1.363487816E+01
1.460774709E+01  1.441861343E+01
1.461432271E+01  1.378548431E+01
1.462089833E+01  1.377164078E+01
1.462747396E+01  1.351870155E+01
1.463404958E+01  1.335530090E+01
1.464062520E+01  1.280245495E+01
1.464720083E+01  1.121858788E+01
1.465377645E+01  1.044161606E+01
1.466035207E+01  9.943246841E+00
1.466692770E+01  1.115759087E+01
1.467350332E+01  1.217696285E+01
1.468007894E+01  1.307951832E+01
1.468665457E+01  1.385503578E+01
1.469323019E+01  1.357971859E+01
1.469980581E+01  1.392596245E+01
1.470638144E+01  1.452563477E+01
1.471295706E+01  1.497105217E+01
1.471953268E+01  1.555472565E+01
1.472610831E+01  1.568684292E+01
1.473268393E+01  1.570288086E+01
1.473925955E+01  1.521517277E+01
1.474583518E+01  1.512950611E+01
1.475241080E+01  1.359580898E+01
1.475898642E+01  1.259213066E+01
1.476556205E+01  1.232161713E+01
1.477213767E+01  1.116563606E+01
1.477871329E+01  9.490414619E+00
1.478528892E+01  8.636786461E+00
1.479186454E+01  9.929961205E+00
1.479844016E+01  1.254621792E+01
1.480501579E+01  1.429708672E+01
1.481159141E+01  1.457173634E+01
1.481816703E+01  1.429204273E+01
1.482474266E+01  1.355517673E+01
1.483131828E+01  1.331865788E+01
1.483789390E+01  1.255220985E+01
1.484446953E+01  1.118502903E+01
1.485104515E+01  1.100763893E+01
1.485762077E+01  1.108204269E+01
1.486419639E+01  1.209524727E+01
1.487077202E+01  1.305359173E+01
1.487734764E+01  1.382083797E+01
1.488392326E+01  1.475488758E+01
1.489049889E+01  1.459694290E+01
1.489707451E+01  1.329963303E+01
1.490365013E+01  1.235855675E+01
1.491022576E+01  1.055007362E+01
1.491680138E+01  9.686190605E+00
1.492337700E+01  1.015167046E+01
1.492995263E+01  1.133860016E+01
1.493652825E+01  1.138858032E+01
1.494310387E+01  1.242075443E+01
1.494967950E+01  1.175690269E+01
1.495625512E+01  1.010406399E+01
1.496283074E+01  8.786953926E+00
1.496940637E+01  9.157634735E+00
1.497598199E+01  9.347957611E+00
1.498255761E+01  9.624540329E+00
1.498913324E+01  1.036923981E+01
1.499570886E+01  1.041020489E+01
1.500228448E+01  9.102440834E+00
1.500886011E+01  9.240410805E+00
1.501543573E+01  9.058033943E+00
1.502201135E+01  9.283859253E+00
1.502858698E+01  9.117630959E+00
1.503516260E+01  9.099427223E+00
1.504173822E+01  8.793741226E+00
1.504831385E+01  9.303645134E+00
1.505488947E+01  9.670199394E+00
1.506146509E+01  8.792374611E+00
1.506804072E+01  7.280570507E+00
1.507461634E+01  7.840402126E+00
1.508119196E+01  8.864984512E+00
1.508776759E+01  1.012389755E+01
1.509434321E+01  1.023877239E+01
1.510091883E+01  1.173846722E+01
1.510749446E+01  1.248875237E+01
1.511407008E+01  1.155705738E+01
1.512064570E+01  1.102741241E+01
1.512722133E+01  1.056783104E+01
1.513379695E+01  9.930309296E+00
1.514037257E+01  9.367328644E+00
1.514694820E+01  8.933614731E+00
1.515352382E+01  8.438286781E+00
1.516009944E+01  9.250028610E+00
1.516667507E+01  8.574439049E+00
1.517325069E+01  9.667404175E+00
1.517982631E+01  1.058803177E+01
1.518640194E+01  1.159952641E+01
1.519297756E+01  1.102270794E+01
1.519955318E+01  1.178581524E+01
1.520612880E+01  1.285223961E+01
1.521270443E+01  1.343585968E+01
1.521928005E+01  1.306451416E+01
1.522585567E+01  1.366154861E+01
1.523243130E+01  1.415176868E+01
1.523900692E+01  1.326564503E+01
1.524558254E+01  1.366870308E+01
1.525215817E+01  1.605332184E+01
1.525873379E+01  1.926764297E+01
1.526530941E+01  2.024329758E+01
1.527188504E+01  2.116582870E+01
1.527846066E+01  2.128962517E+01
1.528503628E+01  2.167278099E+01
1.529161191E+01  2.235191345E+01
1.529818753E+01  2.411461258E+01
1.530476315E+01  2.451262856E+01
1.531133878E+01  2.513726807E+01
1.531791440E+01  2.699194336E+01
1.532449002E+01  2.754393768E+01
1.533106565E+01  2.915213966E+01
1.533764127E+01  3.015200043E+01
1.534421689E+01  3.048151016E+01
1.535079252E+01  3.266216660E+01
1.535736814E+01  3.554993057E+01
1.536394376E+01  3.934696579E+01
1.537051939E+01  4.322662735E+01
1.537709501E+01  4.718698120E+01
1.538367063E+01  5.063430023E+01
1.539024626E+01  5.554077911E+01
1.539682188E+01  6.186786652E+01
1.540339750E+01  6.712390137E+01
1.540997313E+01  7.201837921E+01
1.541654875E+01  7.870906067E+01
1.542312437E+01  8.722381592E+01
1.542970000E+01  9.559246063E+01
1.543627562E+01  1.033731613E+02
1.544285124E+01  1.131841049E+02
1.544942687E+01  1.241210556E+02
1.545600249E+01  1.357724304E+02
1.546257811E+01  1.497457123E+02
1.546915374E+01  1.656029358E+02
1.547572936E+01  1.841102905E+02
1.548230498E+01  2.033273773E+02
1.548888061E+01  2.251614685E+02
1.549545623E+01  2.469358521E+02
1.550203185E+01  2.709533081E+02
1.550860748E+01  2.933398743E+02
1.551518310E+01  3.205774841E+02
1.552175872E+01  3.484342651E+02
1.552833434E+01  3.761275330E+02
1.553490997E+01  3.970259705E+02
1.554148559E+01  4.239318848E+02
1.554806121E+01  4.324790344E+02
1.555463684E+01  4.438246765E+02
1.556121246E+01  4.403638916E+02
1.556778808E+01  4.274623718E+02
1.557436371E+01  4.056728821E+02
1.558093933E+01  3.896751099E+02
1.558751495E+01  3.690799255E+02
1.559409058E+01  3.576582642E+02
1.560066620E+01  3.358149414E+02
1.560724182E+01  3.286280823E+02
1.561381745E+01  3.081245422E+02
1.562039307E+01  2.986177368E+02
1.562696869E+01  2.717849121E+02
1.563354432E+01  2.418199158E+02
1.564011994E+01  2.173325806E+02
1.564669556E+01  1.957623291E+02
1.565327119E+01  1.799050598E+02
1.565984681E+01  1.667196960E+02
1.566642243E+01  1.555245972E+02
1.567299806E+01  1.450912170E+02
1.567957368E+01  1.367281342E+02
1.568614930E+01  1.283469238E+02
1.569272493E+01  1.209895706E+02
1.569930055E+01  1.139329071E+02
1.570587617E+01  1.078663559E+02
1.571245180E+01  1.015706787E+02
1.571902742E+01  9.570161438E+01
1.572560304E+01  8.926403809E+01
1.573217867E+01  8.340051270E+01
1.573875429E+01  7.802314758E+01
1.574532991E+01  7.490147400E+01
1.575190554E+01  7.251156616E+01
1.575848116E+01  7.097305298E+01
1.576505678E+01  6.804620361E+01
1.577163241E+01  6.516658020E+01
1.577820803E+01  6.177267075E+01
1.578478365E+01  6.201879501E+01
1.579135928E+01  6.054022980E+01
1.579793490E+01  5.908943939E+01
1.580451052E+01  5.624458313E+01
1.581108615E+01  5.452912903E+01
1.581766177E+01  5.222192001E+01
1.582423739E+01  5.051781845E+01
1.583081302E+01  4.904771423E+01
1.583738864E+01  4.708948517E+01
1.584396426E+01  4.350352097E+01
1.585053988E+01  4.055841064E+01
1.585711551E+01  3.853398514E+01
1.586369113E+01  3.785606384E+01
1.587026675E+01  3.728297806E+01
1.587684238E+01  3.693439865E+01
1.588341800E+01  3.500078964E+01
1.588999362E+01  3.298461914E+01
1.589656925E+01  3.146257973E+01
1.590314487E+01  3.141565323E+01
1.590972049E+01  3.100840950E+01
1.591629612E+01  2.863686562E+01
1.592287174E+01  2.693579865E+01
1.592944736E+01  2.454242897E+01
1.593602299E+01  2.383517456E+01
1.594259861E+01  2.293855286E+01
1.594917423E+01  2.194728279E+01
1.595574986E+01  2.126565742E+01
1.596232548E+01  2.166221428E+01
1.596890110E+01  2.216281891E+01
1.597547673E+01  2.316735077E+01
1.598205235E+01  2.285400772E+01
1.598862797E+01  2.143516350E+01
1.599520360E+01  2.070277786E+01
1.600177922E+01  2.034968948E+01
1.600835484E+01  2.038660049E+01
1.601493047E+01  2.016943169E+01
1.602150609E+01  1.986659431E+01
1.602808171E+01  1.901467133E+01
1.603465734E+01  1.815414619E+01
1.604123296E+01  1.713556099E+01
1.604780858E+01  1.653260612E+01
1.605438421E+01  1.656984711E+01
1.606095983E+01  1.765788841E+01
1.606753545E+01  1.866827583E+01
1.607411108E+01  1.875771141E+01
1.608068670E+01  1.869715881E+01
1.608726232E+01  2.095289421E+01
1.609383795E+01  2.349266815E+01
1.610041357E+01  2.585112762E+01
1.610698919E+01  2.699407196E+01
1.611356482E+01  2.753525925E+01
1.612014044E+01  2.897175026E+01
1.612671606E+01  3.086506653E+01
1.613329169E+01  3.325817490E+01
1.613986731E+01  3.559786224E+01
1.614644293E+01  3.802475739E+01
1.615301856E+01  4.167316055E+01
1.615959418E+01  4.402794647E+01
1.616616980E+01  4.588308716E+01
1.617274543E+01  4.838216400E+01
1.617932105E+01  5.239971924E+01
1.618589667E+01  5.631078339E+01
1.619247229E+01  5.933219147E+01
1.619904792E+01  6.163438416E+01
1.620562354E+01  6.494982910E+01
1.621219916E+01  6.888598633E+01
1.621877479E+01  7.264211273E+01
1.622535041E+01  7.748582458E+01
1.623192603E+01  8.594010925E+01
1.623850166E+01  9.015587616E+01
1.624507728E+01  9.261803436E+01
1.625165290E+01  9.424750519E+01
1.625822853E+01  9.449109650E+01
1.626480415E+01  9.182784271E+01
1.627137977E+01  8.720697784E+01
1.627795540E+01  8.353573608E+01
1.628453102E+01  7.874675751E+01
1.629110664E+01  7.642109680E+01
1.629768227E+01  7.325944519E+01
1.630425789E+01  7.080475616E+01
1.631083351E+01  6.850917053E+01
1.631740914E+01  6.647863770E+01
1.632398476E+01  6.443089294E+01
1.633056038E+01  6.234444046E+01
1.633713601E+01  6.068408203E+01
1.634371163E+01  5.711922073E+01
1.635028725E+01  5.494912720E+01
1.635686288E+01  5.162297440E+01
1.636343850E+01  4.949862671E+01
1.637001412E+01  4.741294861E+01
1.637658975E+01  4.563540649E+01
1.638316537E+01  4.264105225E+01
1.638974099E+01  4.180043030E+01
1.639631662E+01  4.045625687E+01
1.640289224E+01  3.974470520E+01
1.640946786E+01  3.790839386E+01
1.641604349E+01  3.718017578E+01
1.642261911E+01  3.682611084E+01
1.642919473E+01  3.609273529E+01
1.643577036E+01  3.576613617E+01
1.644234598E+01  3.534724045E+01
1.644892160E+01  3.412215042E+01
1.645549723E+01  3.438282013E+01
1.646207285E+01  3.297492599E+01
1.646864847E+01  3.188819504E+01
1.647522410E+01  3.170610428E+01
1.648179972E+01  3.186418915E+01
1.648837534E+01  3.161782074E+01
1.649495097E+01  3.201582718E+01
1.650152659E+01  3.181700325E+01
1.650810221E+01  3.217956924E+01
1.651467783E+01  3.109182549E+01
1.652125346E+01  3.156355858E+01
1.652782908E+01  3.148396301E+01
1.653440470E+01  3.147611427E+01
1.654098033E+01  3.165479660E+01
1.654755595E+01  3.149319458E+01
1.655413157E+01  3.255775833E+01
1.656070720E+01  3.246131897E+01
1.656728282E+01  3.414875412E+01
1.657385844E+01  3.584666061E+01
1.658043407E+01  3.663565445E+01
1.658700969E+01  3.754116821E+01
1.659358531E+01  3.895434952E+01
1.660016094E+01  4.002221298E+01
1.660673656E+01  4.099381256E+01
1.661331218E+01  4.094974136E+01
1.661988781E+01  4.162684250E+01
1.662646343E+01  4.190647507E+01
1.663303905E+01  4.236336136E+01
1.663961468E+01  4.183393097E+01
1.664619030E+01  4.138361359E+01
1.665276592E+01  4.144794083E+01
1.665934155E+01  4.150785828E+01
1.666591717E+01  4.261509705E+01
1.667249279E+01  4.195566177E+01
1.667906842E+01  4.160373688E+01
1.668564404E+01  4.152899933E+01
1.669221966E+01  4.169283295E+01
1.669879529E+01  4.128804398E+01
1.670537091E+01  4.208459854E+01
1.671194653E+01  4.192422485E+01
1.671852216E+01  4.323849487E+01
1.672509778E+01  4.489892197E+01
1.673167340E+01  4.727993774E+01
1.673824903E+01  5.014514923E+01
1.674482465E+01  5.235482407E+01
1.675140027E+01  5.269697952E+01
1.675797590E+01  5.099429703E+01
1.676455152E+01  4.900696182E+01
1.677112714E+01  4.857328415E+01
1.677770277E+01  4.905550766E+01
1.678427839E+01  5.021969223E+01
1.679085401E+01  5.068101883E+01
1.679742964E+01  5.050194550E+01
1.680400526E+01  5.048711777E+01
1.681058088E+01  5.107547760E+01
1.681715651E+01  5.217374039E+01
1.682373213E+01  5.282192612E+01
1.683030775E+01  5.337696838E+01
1.683688338E+01  5.291992569E+01
1.684345900E+01  5.256847763E+01
1.685003462E+01  5.181092834E+01
1.685661024E+01  5.197054291E+01
1.686318587E+01  5.248876190E+01
1.686976149E+01  5.459364700E+01
1.687633711E+01  5.583895874E+01
1.688291274E+01  5.708753586E+01
1.688948836E+01  5.749030304E+01
1.689606398E+01  5.590816116E+01
1.690263961E+01  5.339975739E+01
1.690921523E+01  5.103790283E+01
1.691579085E+01  5.076259232E+01
1.692236648E+01  4.957583618E+01
1.692894210E+01  4.795668793E+01
1.693551772E+01  4.624064636E+01
1.694209335E+01  4.508399963E+01
1.694866897E+01  4.504196548E+01
1.695524459E+01  4.483234787E+01
1.696182022E+01  4.332967758E+01
1.696839584E+01  4.134598160E+01
1.697497146E+01  3.913078308E+01
1.698154709E+01  3.800732040E+01
1.698812271E+01  3.796385956E+01
1.699469833E+01  3.686219788E+01
1.700127396E+01  3.417691422E+01
1.700784958E+01  3.299390793E+01
1.701442520E+01  3.206019974E+01
1.702100083E+01  3.082836914E+01
1.702757645E+01  2.917823410E+01
1.703415207E+01  2.866440964E+01
1.704072770E+01  2.735908699E+01
1.704730332E+01  2.697311783E+01
1.705387894E+01  2.686139679E+01
1.706045457E+01  2.680850410E+01
1.706703019E+01  2.602674866E+01
1.707360581E+01  2.368547249E+01
1.708018144E+01  2.193986130E+01
1.708675706E+01  2.192312622E+01
1.709333268E+01  2.233342361E+01
1.709990831E+01  2.173854637E+01
1.710648393E+01  2.051391029E+01
1.711305955E+01  1.823171234E+01
1.711963518E+01  1.728203392E+01
1.712621080E+01  1.718288803E+01
1.713278642E+01  1.810416222E+01
1.713936205E+01  1.826164627E+01
1.714593767E+01  1.845317078E+01
1.715251329E+01  1.953224945E+01
1.715908892E+01  1.904819870E+01
1.716566454E+01  1.849078178E+01
1.717224016E+01  1.787857819E+01
1.717881578E+01  1.750410652E+01
1.718539141E+01  1.738254738E+01
1.719196703E+01  1.791434669E+01
1.719854265E+01  1.708296394E+01
1.720511828E+01  1.537381935E+01
1.721169390E+01  1.310437012E+01
1.721826952E+01  1.291092491E+01
1.722484515E+01  1.302696133E+01
1.723142077E+01  1.250431824E+01
1.723799639E+01  1.219122028E+01
1.724457202E+01  1.197837162E+01
1.725114764E+01  1.167932129E+01
1.725772326E+01  1.331952953E+01
1.726429889E+01  1.410120583E+01
1.727087451E+01  1.536131859E+01
1.727745013E+01  1.553790092E+01
1.728402576E+01  1.634778214E+01
1.729060138E+01  1.694479370E+01
1.729717700E+01  1.607064629E+01
1.730375263E+01  1.477611828E+01
1.731032825E+01  1.364078522E+01
1.731690387E+01  1.338239193E+01
1.732347950E+01  1.275578117E+01
1.733005512E+01  1.324674034E+01
1.733663074E+01  1.248118210E+01
1.734320637E+01  1.189164734E+01
1.734978199E+01  1.197951794E+01
1.735635761E+01  1.245417213E+01
1.736293324E+01  1.304304981E+01
1.736950886E+01  1.223383904E+01
1.737608448E+01  1.113482952E+01
1.738266011E+01  9.570129395E+00
1.738923573E+01  9.405838966E+00
1.739581135E+01  9.248295784E+00
1.740238698E+01  1.003001308E+01
1.740896260E+01  1.087637997E+01
1.741553822E+01  1.078535557E+01
1.742211385E+01  1.173390675E+01
1.742868947E+01  1.332059860E+01
1.743526509E+01  1.389009857E+01
1.744184072E+01  1.329197216E+01
1.744841634E+01  1.223419762E+01
1.745499196E+01  1.100191784E+01
1.746156759E+01  1.110489750E+01
1.746814321E+01  1.090985394E+01
1.747471883E+01  1.115705395E+01
1.748129446E+01  1.133531284E+01
1.748787008E+01  1.287975121E+01
1.749444570E+01  1.345743656E+01
1.750102132E+01  1.431991863E+01
1.750759695E+01  1.504200268E+01
1.751417257E+01  1.460230923E+01
1.752074819E+01  1.455417156E+01
1.752732382E+01  1.515210152E+01
1.753389944E+01  1.594650936E+01
1.754047506E+01  1.675001335E+01
1.754705069E+01  1.856077576E+01
1.755362631E+01  2.030273247E+01
1.756020193E+01  1.899893951E+01
1.756677756E+01  1.769245529E+01
1.757335318E+01  1.714752388E+01
1.757992880E+01  1.823237610E+01
1.758650443E+01  1.864384079E+01
1.759308005E+01  1.881018066E+01
1.759965567E+01  1.856197739E+01
1.760623130E+01  1.664532852E+01
1.761280692E+01  1.593570137E+01
1.761938254E+01  1.439400005E+01
1.762595817E+01  1.582632065E+01
1.763253379E+01  1.776237679E+01
1.763910941E+01  1.870794106E+01
1.764568504E+01  1.801398468E+01
1.765226066E+01  1.710861397E+01
1.765883628E+01  1.671728897E+01
1.766541191E+01  1.880569839E+01
1.767198753E+01  1.865983200E+01
1.767856315E+01  1.745825958E+01
1.768513878E+01  1.744888496E+01
1.769171440E+01  1.717063332E+01
1.769829002E+01  1.678889656E+01
1.770486565E+01  1.642317963E+01
1.771144127E+01  1.650501251E+01
1.771801689E+01  1.682091713E+01
1.772459252E+01  1.809981537E+01
1.773116814E+01  1.956527901E+01
1.773774376E+01  2.026169777E+01
1.774431939E+01  2.032381630E+01
1.775089501E+01  1.976384544E+01
1.775747063E+01  2.008571625E+01
1.776404626E+01  2.092082024E+01
1.777062188E+01  2.153680801E+01
1.777719750E+01  2.112615013E+01
1.778377313E+01  1.994139671E+01
1.779034875E+01  1.826295090E+01
1.779692437E+01  1.698011208E+01
1.780350000E+01  1.715699768E+01
1.781007562E+01  1.831867027E+01
1.781665124E+01  1.998776054E+01
1.782322687E+01  2.142664337E+01
1.782980249E+01  2.186204338E+01
1.783637811E+01  2.184344101E+01
1.784295373E+01  2.160243034E+01
1.784952936E+01  2.104539680E+01
1.785610498E+01  2.048935509E+01
1.786268060E+01  2.103596878E+01
1.786925623E+01  2.265797234E+01
1.787583185E+01  2.385053253E+01
1.788240747E+01  2.389004707E+01
1.788898310E+01  2.568666840E+01
1.789555872E+01  2.746546555E+01
1.790213434E+01  2.804718018E+01
1.790870997E+01  2.764120483E+01
1.791528559E+01  2.555992508E+01
1.792186121E+01  2.343358231E+01
1.792843684E+01  2.195000648E+01
1.793501246E+01  2.110463333E+01
1.794158808E+01  2.150860596E+01
1.794816371E+01  2.261582565E+01
1.795473933E+01  2.329084015E+01
1.796131495E+01  2.360327148E+01
1.796789058E+01  2.500848961E+01
1.797446620E+01  2.547554398E+01
1.798104182E+01  2.485093880E+01
1.798761745E+01  2.446508598E+01
1.799419307E+01  2.449802971E+01
1.800076869E+01  2.400385857E+01
1.800734432E+01  2.415437508E+01
1.801391994E+01  2.497882652E+01
1.802049556E+01  2.591373062E+01
1.802707119E+01  2.620275688E+01
1.803364681E+01  2.623464203E+01
1.804022243E+01  2.669306755E+01
1.804679806E+01  2.525003433E+01
1.805337368E+01  2.518890190E+01
1.805994930E+01  2.555525970E+01
1.806652493E+01  2.619843483E+01
1.807310055E+01  2.579003143E+01
1.807967617E+01  2.474874306E+01
1.808625180E+01  2.507822609E+01
1.809282742E+01  2.459805489E+01
1.809940304E+01  2.518004417E+01
1.810597867E+01  2.589423943E+01
1.811255429E+01  2.675548744E+01
1.811912991E+01  2.732353783E+01
1.812570554E+01  2.752041054E+01
1.813228116E+01  2.748439980E+01
1.813885678E+01  2.700171089E+01
1.814543241E+01  2.631163216E+01
1.815200803E+01  2.544100571E+01
1.815858365E+01  2.477111816E+01
1.816515927E+01  2.277745628E+01
1.817173490E+01  2.228458023E+01
1.817831052E+01  2.252228928E+01
1.818488614E+01  2.206848335E+01
1.819146177E+01  2.136920357E+01
1.819803739E+01  2.225132179E+01
1.820461301E+01  2.393134308E+01
1.821118864E+01  2.557351685E+01
1.821776426E+01  2.595829773E+01
1.822433988E+01  2.573382759E+01
1.823091551E+01  2.558879089E+01
1.823749113E+01  2.653464508E+01
1.824406675E+01  2.566198730E+01
1.825064238E+01  2.412345886E+01
1.825721800E+01  2.357321358E+01
1.826379362E+01  2.432170868E+01
1.827036925E+01  2.460620880E+01
1.827694487E+01  2.470407486E+01
1.828352049E+01  2.460708237E+01
1.829009612E+01  2.401213837E+01
1.829667174E+01  2.309520912E+01
1.830324736E+01  2.292781448E+01
1.830982299E+01  2.259812355E+01
1.831639861E+01  2.272558784E+01
1.832297423E+01  2.335937309E+01
1.832954986E+01  2.355305672E+01
1.833612548E+01  2.357653046E+01
1.834270110E+01  2.197897530E+01
1.834927673E+01  2.172117805E+01
1.835585235E+01  2.182981682E+01
1.836242797E+01  2.283835983E+01
1.836900360E+01  2.371089363E+01
1.837557922E+01  2.372443581E+01
1.838215484E+01  2.254118919E+01
1.838873047E+01  2.153520012E+01
1.839530609E+01  2.092663574E+01
1.840188171E+01  2.214945030E+01
1.840845734E+01  2.346809006E+01
1.841503296E+01  2.343014336E+01
1.842160858E+01  2.398204803E+01
1.842818421E+01  2.351844215E+01
1.843475983E+01  2.415559196E+01
1.844133545E+01  2.450387764E+01
1.844791108E+01  2.440705681E+01
1.845448670E+01  2.512685966E+01
1.846106232E+01  2.555442619E+01
1.846763795E+01  2.592076492E+01
1.847421357E+01  2.510684204E+01
1.848078919E+01  2.352297401E+01
1.848736482E+01  2.161373520E+01
1.849394044E+01  2.145367050E+01
1.850051606E+01  2.014524269E+01
1.850709168E+01  1.945215034E+01
1.851366731E+01  1.817969894E+01
1.852024293E+01  1.855711365E+01
1.852681855E+01  1.837866020E+01
1.853339418E+01  1.925801849E+01
1.853996980E+01  2.003990364E+01
1.854654542E+01  2.017015457E+01
1.855312105E+01  2.080949593E+01
1.855969667E+01  2.103467751E+01
1.856627229E+01  2.163729668E+01
1.857284792E+01  2.129221535E+01
1.857942354E+01  1.973137665E+01
1.858599916E+01  1.982873917E+01
1.859257479E+01  2.019742775E+01
1.859915041E+01  2.173951530E+01
1.860572603E+01  2.267726707E+01
1.861230166E+01  2.356973076E+01
1.861887728E+01  2.411204529E+01
1.862545290E+01  2.492792320E+01
1.863202853E+01  2.494417381E+01
1.863860415E+01  2.462117767E+01
1.864517977E+01  2.358767319E+01
1.865175540E+01  2.390152168E+01
1.865833102E+01  2.491497040E+01
1.866490664E+01  2.682936478E+01
1.867148227E+01  2.782311249E+01
1.867805789E+01  2.864791489E+01
1.868463351E+01  2.897400665E+01
1.869120914E+01  3.027642059E+01
1.869778476E+01  3.188482666E+01
1.870436038E+01  3.403578568E+01
1.871093601E+01  3.658567810E+01
1.871751163E+01  3.932222366E+01
1.872408725E+01  4.195422745E+01
1.873066288E+01  4.447681808E+01
1.873723850E+01  4.771927643E+01
1.874381412E+01  5.058378601E+01
1.875038975E+01  5.248631668E+01
1.875696537E+01  5.439955139E+01
1.876354099E+01  5.588652420E+01
1.877011662E+01  5.807765198E+01
1.877669224E+01  6.029857635E+01
1.878326786E+01  6.194221115E+01
1.878984349E+01  6.304240417E+01
1.879641911E+01  6.177782059E+01
1.880299473E+01  5.954221344E+01
1.880957036E+01  5.657867432E+01
1.881614598E+01  5.388246155E+01
1.882272160E+01  5.108771896E+01
1.882929722E+01  4.836201859E+01
1.883587285E+01  4.479166031E+01
1.884244847E+01  4.150035095E+01
1.884902409E+01  3.907311249E+01
1.885559972E+01  3.629460526E+01
1.886217534E+01  3.311651993E+01
1.886875096E+01  3.083683205E+01
1.887532659E+01  2.926102066E+01
1.888190221E+01  2.752148819E+01
1.888847783E+01  2.569187164E+01
1.889505346E+01  2.435106659E+01
1.890162908E+01  2.222582817E+01
1.890820470E+01  2.040613174E+01
1.891478033E+01  1.876017952E+01
1.892135595E+01  1.758574486E+01
1.892793157E+01  1.673559570E+01
1.893450720E+01  1.666671944E+01
1.894108282E+01  1.529276276E+01
1.894765844E+01  1.366456795E+01
1.895423407E+01  1.300618267E+01
1.896080969E+01  1.124255657E+01
1.896738531E+01  1.088271713E+01
1.897396094E+01  9.852183342E+00
1.898053656E+01  9.059773445E+00
1.898711218E+01  8.376559258E+00
1.899368781E+01  6.525986195E+00
1.900026343E+01  6.012133598E+00
1.900683905E+01  6.323399067E+00
1.901341468E+01  5.604012966E+00
1.901999030E+01  5.190331459E+00
1.902656592E+01  5.298536301E+00
1.903314155E+01  4.660109043E+00
1.903971717E+01  2.899989367E+00
1.904629279E+01  1.994804859E+00
1.905286842E+01  1.920527935E+00
1.905944404E+01  3.332804441E+00
1.906601966E+01  4.037260532E+00
1.907259529E+01  4.114519119E+00
1.907917091E+01  2.871301889E+00
1.908574653E+01  1.764098883E+00
1.909232216E+01  1.732415080E+00
1.909889778E+01  2.665240765E+00
1.910547340E+01  3.674101591E+00
1.911204903E+01  4.505721569E+00
1.911862465E+01  4.871676922E+00
1.912520027E+01  4.808361530E+00
1.913177590E+01  5.546793938E+00
1.913835152E+01  5.232151031E+00
1.914492714E+01  4.914945126E+00
1.915150276E+01  6.214737415E+00
1.915807839E+01  6.967451096E+00
1.916465401E+01  7.390450001E+00
1.917122963E+01  6.480696678E+00
1.917780526E+01  6.536081314E+00
1.918438088E+01  6.878462791E+00
1.919095650E+01  6.721704483E+00
1.919753213E+01  5.737820148E+00
1.920410775E+01  5.625815868E+00
1.921068337E+01  7.441429138E+00
1.921725900E+01  9.151060104E+00
1.922383462E+01  1.000603580E+01
1.923041024E+01  9.161026001E+00
1.923698587E+01  8.590874672E+00
1.924356149E+01  8.694609642E+00
1.925013711E+01  9.325128555E+00
1.925671274E+01  1.011050701E+01
1.926328836E+01  9.796237946E+00
1.926986398E+01  9.764962196E+00
1.927643961E+01  9.838483810E+00
1.928301523E+01  9.312499046E+00
1.928959085E+01  8.595250130E+00
1.929616648E+01  7.982769012E+00
1.930274210E+01  7.351701260E+00
1.930931772E+01  7.162271976E+00
1.931589335E+01  7.157365799E+00
1.932246897E+01  7.647896290E+00
1.932904459E+01  7.005479813E+00
1.933562022E+01  5.204644680E+00
1.934219584E+01  2.947476864E+00
1.934877146E+01  1.855689406E+00
1.935534709E+01  8.544725180E-01
1.936192271E+01  -3.947062790E-01
1.936849833E+01  -1.012601972E+00
1.937507396E+01  3.029955328E-01
1.938164958E+01  5.980368257E-01
1.938822520E+01  6.713296473E-02
1.939480083E+01  -6.255044341E-01
1.940137645E+01  -4.658814073E-01
1.940795207E+01  -3.405756950E-01
1.941452770E+01  1.572268158E-01
1.942110332E+01  4.181899130E-01
1.942767894E+01  1.352251172E-01
1.943425457E+01  8.292382956E-02
1.944083019E+01  4.512544274E-01
1.944740581E+01  -1.090863347E-01
1.945398144E+01  -9.478933215E-01
1.946055706E+01  1.308753043E-01
1.946713268E+01  4.558204412E-01
1.947370831E+01  3.467641771E-02
1.948028393E+01  -1.209791452E-01
1.948685955E+01  -3.540041670E-02
1.949343517E+01  2.531336434E-02
