839.97719,961,
841.18816,962,
842.39891,959,
843.60944,963,
844.81975,955,
846.02984,960,
847.23971,965,
848.44936,983,
849.65879,1000,
850.868,990,
852.07699,971,
853.28576,960,
854.49431,954,
855.70264,963,
856.91075,963,
858.11864,961,
859.32631,959,
860.53376,970,
861.741,957,
862.94801,958,
864.1548,960,
865.36137,963,
866.56772,962,
867.77385,966,
868.97976,961,
870.18545,967,
871.39092,999,
872.59617,1010,
873.8012,1002,
875.00601,969,
876.2106,962,
877.41497,957,
878.61913,960,
879.82306,957,
881.02677,963,
882.23026,962,
883.43353,963,
884.63658,959,
885.83941,958,
887.04202,962,
888.24441,958,
889.44658,963,
890.64854,964,
891.85027,964,
893.05178,963,
894.25307,961,
895.45414,958,
896.65499,952,
897.85562,963,
899.05603,962,
900.25623,966,
901.4562,958,
902.65595,959,
903.85548,964,
905.05479,961,
906.25388,958,
907.45276,969,
908.65141,962,
909.84984,962,
911.04805,967,
912.24604,968,
913.44381,963,
914.64137,962,
915.8387,962,
917.03581,968,
918.2327,962,
919.42937,963,
920.62582,962,
921.82206,957,
923.01807,963,
924.21386,957,
925.40943,960,
926.60478,959,
927.79992,959,
928.99483,966,
930.18952,961,
931.38399,962,
932.57825,963,
933.77228,965,
934.96609,964,
936.15968,962,
937.35305,962,
938.54621,968,
939.73914,960,
940.93185,958,
942.12434,956,
943.31662,958,
944.50867,960,
945.7005,963,
946.89211,967,
948.08351,956,
949.27468,962,
950.46563,964,
951.65636,960,
952.84688,957,
954.03717,964,
955.22724,961,
956.41709,958,
957.60673,962,
958.79614,958,
959.98533,964,
961.17431,961,
962.36306,960,
963.55159,961,
964.7399,965,
965.928,963,
967.11587,955,
968.30352,966,
969.49096,961,
970.67817,959,
971.86516,962,
973.05194,963,
974.23849,960,
975.42482,959,
976.61094,964,
977.79683,969,
978.9825,960,
980.16795,969,
981.35319,965,
982.5382,964,
983.72299,962,
984.90757,966,
986.09192,965,
987.27606,959,
988.45997,966,
989.64366,963,
990.82714,961,
992.01039,958,
993.19342,961,
994.37624,966,
995.55883,957,
996.7412,962,
997.92336,964,
999.10529,960,
1000.287,960,
1001.4685,964,
1002.6498,964,
1003.8308,960,
1005.0117,966,
1006.1923,971,
1007.3727,979,
1008.5528,968,
1009.7328,965,
1010.9125,960,
1012.092,962,
1013.2713,969,
1014.4504,959,
1015.6293,961,
1016.8079,961,
1017.9863,959,
1019.1645,959,
1020.3425,961,
1021.5202,959,
1022.6978,962,
1023.8751,958,
1025.0522,963,
1026.2291,958,
1027.4057,960,
1028.5821,955,
1029.7584,963,
1030.9344,952,
1032.1101,964,
1033.2857,962,
1034.461,960,
1035.6361,957,
1036.811,959,
1037.9857,967,
1039.1602,959,
1040.3344,966,
1041.5084,970,
1042.6822,964,
1043.8558,967,
1045.0291,956,
1046.2023,962,
1047.3752,963,
1048.5479,962,
1049.7203,962,
1050.8926,966,
1052.0646,965,
1053.2365,958,
1054.408,970,
1055.5794,958,
1056.7506,957,
1057.9215,965,
1059.0922,966,
1060.2627,964,
1061.433,965,
1062.6031,957,
1063.7729,967,
1064.9425,967,
1066.1119,966,
1067.2811,960,
1068.45,961,
1069.6188,964,
1070.7873,967,
1071.9556,965,
1073.1237,961,
1074.2915,957,
1075.4591,964,
1076.6266,961,
1077.7938,955,
1078.9607,961,
1080.1275,962,
1081.294,967,
1082.4603,956,
1083.6264,957,
1084.7923,959,
1085.958,954,
1087.1234,965,
1088.2886,962,
1089.4536,966,
1090.6184,959,
1091.7829,963,
1092.9473,967,
1094.1114,966,
1095.2753,962,
1096.439,963,
1097.6024,961,
1098.7657,959,
1099.9287,964,
1101.0915,967,
1102.254,960,
1103.4164,962,
1104.5785,968,
1105.7405,968,
1106.9022,955,
1108.0636,963,
1109.2249,963,
1110.3859,967,
1111.5467,958,
1112.7073,961,
1113.8677,967,
1115.0279,966,
1116.1878,965,
1117.3475,966,
1118.507,963,
1119.6663,960,
1120.8254,961,
1121.9842,962,
1123.1428,968,
1124.3012,964,
1125.4594,958,
1126.6173,961,
1127.7751,961,
1128.9326,967,
1130.0899,964,
1131.247,964,
1132.4038,960,
1133.5605,962,
1134.7169,962,
1135.8731,965,
1137.029,966,
1138.1848,962,
1139.3403,961,
1140.4957,963,
1141.6508,962,
1142.8056,969,
1143.9603,963,
1145.1147,963,
1146.2689,961,
1147.4229,966,
1148.5767,962,
1149.7303,961,
1150.8836,970,
1152.0367,967,
1153.1896,965,
1154.3423,971,
1155.4948,966,
1156.647,962,
1157.799,961,
1158.9508,959,
1160.1024,970,
1161.2538,967,
1162.4049,964,
1163.5558,964,
1164.7065,960,
1165.857,971,
1167.0072,962,
1168.1573,966,
1169.3071,968,
1170.4567,963,
1171.6061,962,
1172.7552,970,
1173.9042,967,
1175.0529,962,
1176.2014,962,
1177.3497,969,
1178.4977,967,
1179.6456,963,
1180.7932,973,
1181.9406,973,
1183.0878,966,
1184.2347,972,
1185.3815,963,
1186.528,966,
1187.6743,976,
1188.8203,971,
1189.9662,969,
1191.1118,973,
1192.2573,973,
1193.4025,971,
1194.5474,974,
1195.6922,971,
1196.8367,971,
1197.9811,964,
1199.1252,971,
1200.269,962,
1201.4127,966,
1202.5561,972,
1203.6993,971,
1204.8423,974,
1205.9851,968,
1207.1277,963,
1208.27,966,
1209.4121,964,
1210.554,958,
1211.6957,965,
1212.8372,966,
1213.9784,965,
1215.1194,963,
1216.2602,965,
1217.4008,968,
1218.5412,967,
1219.6813,964,
1220.8212,968,
1221.9609,964,
1223.1004,972,
1224.2397,971,
1225.3787,966,
1226.5175,968,
1227.6561,977,
1228.7945,964,
1229.9327,970,
1231.0706,961,
1232.2083,971,
1233.3458,964,
1234.4831,970,
1235.6202,969,
1236.757,975,
1237.8936,973,
1239.03,968,
1240.1662,974,
1241.3022,975,
1242.4379,972,
1243.5734,975,
1244.7087,970,
1245.8438,969,
1246.9787,983,
1248.1133,969,
1249.2477,972,
1250.3819,982,
1251.5159,971,
1252.6497,974,
1253.7832,973,
1254.9165,974,
1256.0496,981,
1257.1825,971,
1258.3152,975,
1259.4476,986,
1260.5798,979,
1261.7118,980,
1262.8436,971,
1263.9752,981,
1265.1065,991,
1266.2376,1028,
1267.3685,1074,
1268.4992,1170,
1269.6297,1169,
1270.7599,1051,
1271.8899,1000,
1273.0197,997,
1274.1493,989,
1275.2787,984,
1276.4078,991,
1277.5367,988,
1278.6654,985,
1279.7939,993,
1280.9222,998,
1282.0502,992,
1283.178,994,
1284.3056,999,
1285.433,996,
1286.5602,988,
1287.6871,1008,
1288.8138,997,
1289.9403,1002,
1291.0666,998,
1292.1927,1005,
1293.3185,1010,
1294.4441,1011,
1295.5695,1022,
1296.6947,1023,
1297.8197,1020,
1298.9444,1027,
1300.0689,1025,
1301.1932,1032,
1302.3173,1034,
1303.4412,1045,
1304.5648,1048,
1305.6882,1047,
1306.8114,1062,
1307.9344,1058,
1309.0572,1066,
1310.1797,1082,
1311.302,1105,
1312.4241,1126,
1313.546,1142,
1314.6677,1168,
1315.7891,1195,
1316.9104,1237,
1318.0314,1265,
1319.1521,1309,
1320.2727,1382,
1321.393,1433,
1322.5132,1494,
1323.6331,1644,
1324.7527,1771,
1325.8722,1962,
1326.9914,2341,
1328.1105,2928,
1329.2293,3916,
1330.3479,6336,
1331.4662,12450,
1332.5844,25087,
1333.7023,42458,
1334.82,54018,
1335.9375,49637,
1337.0547,32902,
1338.1718,17214,
1339.2886,8563,
1340.4052,5203,
1341.5216,3695,
1342.6377,2946,
1343.7537,2506,
1344.8694,2233,
1345.9849,1978,
1347.1002,1774,
1348.2152,1658,
1349.3301,1527,
1350.4447,1467,
1351.5591,1410,
1352.6733,1317,
1353.7873,1266,
1354.901,1211,
1356.0145,1185,
1357.1278,1171,
1358.2409,1141,
1359.3538,1118,
1360.4664,1119,
1361.5788,1103,
1362.691,1109,
1363.803,1080,
1364.9148,1065,
1366.0263,1052,
1367.1376,1039,
1368.2488,1054,
1369.3596,1045,
1370.4703,1034,
1371.5807,1026,
1372.691,1023,
1373.801,1010,
1374.9107,1021,
1376.0203,1015,
1377.1297,1011,
1378.2388,1002,
1379.3477,1001,
1380.4564,1001,
1381.5648,1002,
1382.6731,1003,
1383.7811,990,
1384.8889,995,
1385.9965,991,
1387.1038,995,
1388.211,984,
1389.3179,984,
1390.4246,997,
1391.5311,993,
1392.6374,982,
1393.7434,991,
1394.8492,991,
1395.9548,979,
1397.0602,986,
1398.1654,993,
1399.2703,983,
1400.375,985,
1401.4795,981,
1402.5838,988,
1403.6879,981,
1404.7917,981,
1405.8954,993,
1406.9988,978,
1408.1019,978,
1409.2049,977,
1410.3077,973,
1411.4102,978,
1412.5125,970,
1413.6146,977,
1414.7164,977,
1415.8181,971,
1416.9195,969,
1418.0207,970,
1419.1217,978,
1420.2225,972,
1421.323,976,
1422.4233,971,
1423.5234,967,
1424.6233,966,
1425.723,963,
1426.8224,978,
1427.9216,958,
1429.0206,965,
1430.1194,962,
1431.218,968,
1432.3163,970,
1433.4145,971,
1434.5124,967,
1435.6101,963,
1436.7075,960,
1437.8048,961,
1438.9018,965,
1439.9986,968,
1441.0952,968,
1442.1915,970,
1443.2877,967,
1444.3836,969,
1445.4793,970,
1446.5748,969,
1447.6701,964,
1448.7651,962,
1449.8599,964,
1450.9545,963,
1452.0489,969,
1453.1431,965,
1454.237,961,
1455.3308,961,
1456.4243,963,
1457.5175,963,
1458.6106,961,
1459.7035,964,
1460.7961,964,
1461.8885,968,
1462.9807,960,
1464.0726,966,
1465.1644,960,
1466.2559,967,
1467.3472,964,
1468.4383,960,
1469.5292,963,
1470.6198,965,
1471.7102,967,
1472.8004,961,
1473.8904,963,
1474.9802,966,
1476.0697,962,
1477.1591,963,
1478.2482,959,
1479.3371,960,
1480.4257,959,
1481.5142,961,
1482.6024,963,
1483.6904,956,
1484.7782,958,
1485.8657,969,
1486.9531,966,
1488.0402,967,
1489.1271,960,
1490.2138,961,
1491.3003,959,
1492.3865,966,
1493.4725,959,
1494.5584,967,
1495.6439,967,
1496.7293,967,
1497.8145,961,
1498.8994,965,
1499.9841,959,
1501.0686,961,
1502.1528,960,
1503.2369,956,
1504.3207,964,
1505.4043,968,
1506.4877,964,
1507.5709,969,
1508.6538,963,
1509.7365,959,
1510.819,958,
1511.9013,963,
1512.9834,962,
1514.0652,958,
1515.1469,960,
1516.2283,954,
1517.3095,959,
1518.3904,962,
1519.4712,959,
1520.5517,963,
1521.632,963,
1522.7121,959,
1523.792,963,
1524.8716,958,
1525.951,965,
1527.0302,964,
1528.1092,961,
1529.188,961,
1530.2665,963,
1531.3449,963,
1532.423,962,
1533.5009,961,
1534.5785,963,
1535.656,962,
1536.7332,967,
1537.8102,963,
1538.887,960,
1539.9636,965,
1541.0399,961,
1542.116,963,
1543.192,964,
1544.2676,959,
1545.3431,955,
1546.4184,962,
1547.4934,956,
1548.5682,960,
1549.6428,960,
1550.7171,958,
1551.7913,967,
1552.8652,956,
1553.9389,963,
1555.0124,965,
1556.0857,962,
1557.1587,963,
1558.2316,960,
1559.3042,963,
1560.3766,957,
1561.4487,965,
1562.5207,963,
1563.5924,961,
1564.6639,967,
1565.7352,956,
1566.8063,958,
1567.8771,961,
1568.9477,957,
1570.0181,957,
1571.0883,956,
1572.1583,954,
1573.228,959,
1574.2976,961,
1575.3669,951,
1576.436,962,
1577.5048,956,
1578.5735,959,
1579.6419,955,
1580.7101,962,
1581.7781,964,
1582.8459,958,
1583.9134,966,
1584.9808,958,
1586.0479,958,
1587.1148,955,
1588.1814,963,
1589.2479,956,
1590.3141,968,
1591.3801,958,
1592.4459,962,
1593.5115,956,
1594.5768,957,
1595.6419,955,
1596.7068,964,
1597.7715,961,
1598.836,954,
1599.9003,958,
1600.9643,958,
1602.0281,960,
1603.0917,957,
1604.1551,955,
1605.2182,963,
1606.2811,955,
1607.3438,969,
1608.4063,959,
1609.4686,954,
1610.5306,966,
1611.5925,966,
1612.6541,956,
1613.7155,961,
1614.7766,962,
1615.8376,961,
1616.8983,957,
1617.9588,963,
1619.0191,961,
1620.0792,958,
1621.139,962,
1622.1987,960,
1623.2581,955,
1624.3173,957,
1625.3762,958,
1626.435,958,
1627.4935,955,
1628.5518,960,
1629.6099,955,
1630.6678,956,
1631.7254,949,
1632.7829,959,
1633.8401,960,
1634.8971,961,
1635.9538,959,
1637.0104,965,
1638.0667,962,
1639.1228,957,
1640.1787,951,
1641.2344,959,
1642.2898,953,
1643.3451,960,
1644.4001,959,
1645.4549,961,
1646.5094,959,
1647.5638,966,
1648.6179,955,
1649.6718,961,
1650.7255,959,
1651.779,957,
1652.8322,959,
1653.8853,962,
1654.9381,960,
1655.9907,957,
1657.043,969,
1658.0952,963,
1659.1471,960,
1660.1988,962,
1661.2503,958,
1662.3016,961,
1663.3526,965,
1664.4035,958,
1665.4541,963,
1666.5045,961,
1667.5546,963,
1668.6046,959,
1669.6543,963,
1670.7038,963,
1671.7531,960,
1672.8022,966,
1673.851,962,
1674.8997,969,
1675.9481,961,
1676.9963,964,
1678.0442,962,
1679.092,963,
1680.1395,966,
1681.1868,958,
1682.2339,963,
1683.2808,958,
1684.3274,966,
1685.3739,961,
1686.4201,962,
1687.4661,960,
1688.5118,969,
1689.5574,963,
1690.6027,964,
1691.6478,962,
1692.6927,962,
1693.7374,958,
1694.7819,969,
1695.8261,966,
1696.8701,964,
1697.9139,966,
1698.9575,969,
1700.0008,967,
1701.0439,975,
1702.0869,971,
1703.1295,967,
1704.172,971,
1705.2143,963,
1706.2563,973,
1707.2981,975,
1708.3397,974,
1709.3811,971,
1710.4222,969,
1711.4632,971,
1712.5039,970,
1713.5444,967,
1714.5846,980,
1715.6247,970,
1716.6645,973,
1717.7041,977,
1718.7435,972,
1719.7827,974,
1720.8216,974,
1721.8604,976,
1722.8989,975,
1723.9372,978,
1724.9753,975,
1726.0131,970,
1727.0507,976,
1728.0881,970,
1729.1253,980,
1730.1623,974,
1731.1991,987,
1732.2356,976,
1733.2719,975,
1734.308,975,
1735.3439,974,
1736.3795,975,
1737.415,967,
1738.4502,975,
1739.4852,968,
1740.5199,973,
1741.5545,978,
1742.5888,976,
1743.6229,974,
1744.6568,968,
1745.6905,974,
1746.724,972,
1747.7572,977,
1748.7902,970,
1749.823,971,
1750.8556,967,
1751.8879,967,
1752.92,959,
1753.952,968,
1754.9837,969,
1756.0151,971,
1757.0464,974,
1758.0774,969,
1759.1082,966,
1760.1388,972,
1761.1692,959,
1762.1993,963,
1763.2293,963,
1764.259,965,
1765.2885,961,
1766.3178,966,
1767.3468,966,
1768.3756,971,
1769.4043,964,
1770.4327,965,
1771.4608,965,
1772.4888,967,
1773.5165,964,
1774.544,964,
1775.5713,969,
1776.5984,962,
1777.6252,977,
1778.6519,1002,
1779.6783,1004,
1780.7045,1006,
1781.7305,989,
1782.7562,968,
1783.7817,966,
1784.8071,962,
1785.8322,972,
1786.857,964,
1787.8817,968,
1788.9061,965,
1789.9303,963,
1790.9543,969,
1791.9781,965,
1793.0017,959,
1794.025,965,
1795.0481,970,
1796.071,966,
1797.0937,966,
1798.1161,966,
1799.1384,966,
1800.1604,972,
1801.1822,966,
1802.2037,966,
1803.2251,970,
1804.2462,970,
1805.2671,968,
1806.2878,967,
1807.3083,974,
1808.3286,964,
1809.3486,967,
1810.3684,970,
1811.388,977,
1812.4074,979,
1813.4265,968,
1814.4455,973,
1815.4642,965,
1816.4827,976,
1817.501,979,
1818.519,974,
1819.5368,978,
1820.5545,974,
1821.5719,974,
1822.589,972,
1823.606,968,
1824.6227,976,
1825.6392,977,
1826.6555,981,
1827.6716,977,
1828.6875,978,
1829.7031,980,
1830.7185,979,
1831.7337,976,
1832.7487,983,
1833.7634,980,
1834.778,977,
1835.7923,978,
1836.8064,990,
1837.8202,980,
1838.8339,982,
1839.8473,980,
1840.8606,979,
1841.8736,985,
1842.8863,989,
1843.8989,984,
1844.9112,983,
1845.9233,978,
1846.9352,982,
1847.9469,973,
1848.9584,983,
1849.9696,978,
1850.9806,980,
1851.9914,983,
1853.002,977,
1854.0123,983,
1855.0225,987,
1856.0324,984,
1857.0421,983,
1858.0516,985,
1859.0608,976,
1860.0698,984,
1861.0787,975,
1862.0873,976,
1863.0956,973,
1864.1038,976,
1865.1117,979,
1866.1194,975,
1867.1269,979,
1868.1342,974,
1869.1413,976,
1870.1481,967,
1871.1547,978,
1872.1611,970,
1873.1673,975,
1874.1733,974,
1875.179,975,
1876.1845,975,
1877.1898,973,
1878.1949,967,
1879.1997,969,
1880.2044,976,
1881.2088,970,
1882.213,969,
1883.217,973,
1884.2207,968,
1885.2243,965,
1886.2276,975,
1887.2307,966,
1888.2335,965,
1889.2362,973,
1890.2386,967,
1891.2409,968,
1892.2428,970,
1893.2446,974,
1894.2462,971,
1895.2475,969,
1896.2486,964,
1897.2495,969,
1898.2502,974,
1899.2507,979,
1900.2509,968,
1901.2509,979,
1902.2507,975,
1903.2503,969,
1904.2497,971,
1905.2488,969,
1906.2477,962,
1907.2464,964,
1908.2449,966,
1909.2431,973,
1910.2412,971,
1911.239,962,
1912.2366,972,
1913.234,964,
1914.2311,966,
1915.2281,968,
1916.2248,971,
1917.2213,972,
1918.2176,971,
1919.2136,964,
1920.2094,967,
1921.2051,961,
1922.2005,968,
1923.1956,963,
1924.1906,964,
1925.1853,968,
1926.1799,964,
1927.1741,969,
1928.1682,961,
1929.1621,967,
1930.1557,967,
1931.1491,963,
1932.1423,967,
1933.1353,972,
1934.1281,967,
1935.1206,970,
1936.1129,977,
1937.105,972,
1938.0969,967,
1939.0886,970,
1940.08,975,
1941.0712,974,
1942.0622,972,
1943.053,974,
1944.0436,967,
1945.0339,973,
1946.024,971,
1947.0139,970,
1948.0036,972,
1948.993,975,
1949.9823,974,
1950.9713,974,
1951.9601,974,
1952.9487,970,
1953.937,976,
1954.9252,972,
1955.9131,975,
1956.9008,974,
1957.8883,967,
1958.8755,973,
1959.8626,970,
1960.8494,978,
1961.836,971,
1962.8224,967,
1963.8085,970,
