# == pyFAI calibration ==
# Distance Sample to Detector: 0.400151958433 m
# PONI: 1.472e-01, 1.496e-01 m
# Rotations: -0.001085 0.000539 -0.000000 rad
# 
# == Fit2d calibration ==
# Distance Sample-beamCenter: 400.152 mm
# Center: x=1500.210, y=1474.586 pix
# Tilt: 0.069 deg  TiltPlanRot: 26.426 deg
# 
# Detector Detector	 Spline= None	 PixelSize= 1.000e-04, 1.000e-04 m
#    Detector has a mask: False 
#    Detector has a dark current: False 
#    detector has a flat field: False 
# 
# Wavelength: 4.12969e-11 m
# Mask applied: None
# Dark current applied: None
# Flat field applied: None
# Polarization factor: None
# Normalization factor: None
#
# 2th_deg	 I
6.000256231E+00  2.751071565E-02
6.006831854E+00  -1.843679398E-01
6.013407478E+00  3.941898942E-01
6.019983101E+00  -1.438832730E-01
6.026558724E+00  -4.175637662E-01
6.033134347E+00  1.903991103E-01
6.039709971E+00  2.435929477E-01
6.046285594E+00  2.343240082E-01
6.052861217E+00  -2.779870629E-01
6.059436840E+00  -2.029540241E-01
6.066012464E+00  8.157543093E-02
6.072588087E+00  1.854325652E+00
6.079163710E+00  2.783469677E+00
6.085739334E+00  4.058963299E+00
6.092314957E+00  3.707622528E+00
6.098890580E+00  2.420020103E+00
6.105466203E+00  1.734780312E+00
6.112041827E+00  1.404539227E+00
6.118617450E+00  1.958194017E+00
6.125193073E+00  2.096745253E+00
6.131768696E+00  1.471927404E+00
6.138344320E+00  1.757932067E+00
6.144919943E+00  3.731142759E+00
6.151495566E+00  4.088168144E+00
6.158071190E+00  3.510515451E+00
6.164646813E+00  2.514447927E+00
6.171222436E+00  2.260700703E+00
6.177798059E+00  2.018552065E+00
6.184373683E+00  2.472191095E+00
6.190949306E+00  3.222831488E+00
6.197524929E+00  5.413220882E+00
6.204100552E+00  1.145779514E+01
6.210676176E+00  1.314732075E+01
6.217251799E+00  1.235263348E+01
6.223827422E+00  1.099298096E+01
6.230403045E+00  7.445176125E+00
6.236978669E+00  4.276581287E+00
6.243554292E+00  2.936608076E+00
6.250129915E+00  2.367641211E+00
6.256705539E+00  2.156188726E+00
6.263281162E+00  2.591667414E+00
6.269856785E+00  3.213382006E+00
6.276432408E+00  4.720454693E+00
6.283008032E+00  5.241542339E+00
6.289583655E+00  4.734133720E+00
6.296159278E+00  3.704126835E+00
6.302734901E+00  3.405609608E+00
6.309310525E+00  3.863404512E+00
6.315886148E+00  3.936402082E+00
6.322461771E+00  3.581367493E+00
6.329037394E+00  3.797693491E+00
6.335613018E+00  4.020925522E+00
6.342188641E+00  6.102506161E+00
6.348764264E+00  7.054934978E+00
6.355339888E+00  8.201249123E+00
6.361915511E+00  7.919491768E+00
6.368491134E+00  8.374249458E+00
6.375066757E+00  8.110490799E+00
6.381642381E+00  9.528742790E+00
6.388218004E+00  9.803127289E+00
6.394793627E+00  1.002422714E+01
6.401369250E+00  9.519181252E+00
6.407944874E+00  9.124883652E+00
6.414520497E+00  8.573223114E+00
6.421096120E+00  8.441246986E+00
6.427671743E+00  8.380612373E+00
6.434247367E+00  8.709088326E+00
6.440822990E+00  7.928813457E+00
6.447398613E+00  7.059004784E+00
6.453974237E+00  5.493821621E+00
6.460549860E+00  5.935186863E+00
6.467125483E+00  5.697687149E+00
6.473701106E+00  6.345516682E+00
6.480276730E+00  7.184657097E+00
6.486852353E+00  8.116152763E+00
6.493427976E+00  8.718642235E+00
6.500003599E+00  8.608980179E+00
6.506579223E+00  7.484984875E+00
6.513154846E+00  7.548813343E+00
6.519730469E+00  7.891758919E+00
6.526306092E+00  9.074852943E+00
6.532881716E+00  1.102610970E+01
6.539457339E+00  1.184841633E+01
6.546032962E+00  1.125582981E+01
6.552608586E+00  1.071201992E+01
6.559184209E+00  1.023520851E+01
6.565759832E+00  8.970923424E+00
6.572335455E+00  8.292090416E+00
6.578911079E+00  8.079295158E+00
6.585486702E+00  8.538146973E+00
6.592062325E+00  7.792525768E+00
6.598637948E+00  7.426794529E+00
6.605213572E+00  7.424741268E+00
6.611789195E+00  8.517213821E+00
6.618364818E+00  9.134003639E+00
6.624940441E+00  9.934592247E+00
6.631516065E+00  9.804715157E+00
6.638091688E+00  9.636871338E+00
6.644667311E+00  8.730466843E+00
6.651242935E+00  8.646054268E+00
6.657818558E+00  8.493914604E+00
6.664394181E+00  9.295634270E+00
6.670969804E+00  7.899884224E+00
6.677545428E+00  6.611342430E+00
6.684121051E+00  6.269560814E+00
6.690696674E+00  5.975789547E+00
6.697272297E+00  5.245579720E+00
6.703847921E+00  4.778085232E+00
6.710423544E+00  5.539816856E+00
6.716999167E+00  6.604255199E+00
6.723574790E+00  7.586919308E+00
6.730150414E+00  7.199083328E+00
6.736726037E+00  6.796857357E+00
6.743301660E+00  5.323813438E+00
6.749877284E+00  5.461133480E+00
6.756452907E+00  4.823163033E+00
6.763028530E+00  5.507941246E+00
6.769604153E+00  5.957547188E+00
6.776179777E+00  5.967123032E+00
6.782755400E+00  4.456836700E+00
6.789331023E+00  3.794869900E+00
6.795906646E+00  4.675580502E+00
6.802482270E+00  4.769638062E+00
6.809057893E+00  4.698135376E+00
6.815633516E+00  5.305772305E+00
6.822209139E+00  5.603476048E+00
6.828784763E+00  4.908285141E+00
6.835360386E+00  3.562586069E+00
6.841936009E+00  4.222437859E+00
6.848511633E+00  5.101713181E+00
6.855087256E+00  4.989187717E+00
6.861662879E+00  4.082283974E+00
6.868238502E+00  2.777112246E+00
6.874814126E+00  1.152851701E+00
6.881389749E+00  2.314284563E+00
6.887965372E+00  4.291460991E+00
6.894540995E+00  5.578524113E+00
6.901116619E+00  6.169606209E+00
6.907692242E+00  5.931149483E+00
6.914267865E+00  5.781356812E+00
6.920843488E+00  5.472179413E+00
6.927419112E+00  4.388881683E+00
6.933994735E+00  2.805665016E+00
6.940570358E+00  1.389572859E+00
6.947145982E+00  1.699519992E+00
6.953721605E+00  2.354994059E+00
6.960297228E+00  2.882736444E+00
6.966872851E+00  3.413763523E+00
6.973448475E+00  3.131608248E+00
6.980024098E+00  2.750833273E+00
6.986599721E+00  1.751648784E+00
6.993175344E+00  7.517354488E-01
6.999750968E+00  -4.478353262E-02
7.006326591E+00  3.987479806E-01
7.012902214E+00  3.829127550E-01
7.019477837E+00  -2.101560086E-01
7.026053461E+00  -5.276171565E-01
7.032629084E+00  3.068739735E-02
7.039204707E+00  4.289298952E-01
7.045780331E+00  4.376780093E-01
7.052355954E+00  2.179059744E+00
7.058931577E+00  3.534966469E+00
7.065507200E+00  4.608965874E+00
7.072082824E+00  4.390366077E+00
7.078658447E+00  4.102848530E+00
7.085234070E+00  4.694946766E+00
7.091809693E+00  4.973594189E+00
7.098385317E+00  5.585082054E+00
7.104960940E+00  6.466720104E+00
7.111536563E+00  7.427161217E+00
7.118112186E+00  7.393960953E+00
7.124687810E+00  7.332280636E+00
7.131263433E+00  7.087416649E+00
7.137839056E+00  7.615757465E+00
7.144414680E+00  7.358077526E+00
7.150990303E+00  6.609406948E+00
7.157565926E+00  5.224597931E+00
7.164141549E+00  5.256265640E+00
7.170717173E+00  6.188669682E+00
7.177292796E+00  7.548555374E+00
7.183868419E+00  7.821165562E+00
7.190444042E+00  7.567669392E+00
7.197019666E+00  7.331411362E+00
7.203595289E+00  6.412321091E+00
7.210170912E+00  7.046354771E+00
7.216746535E+00  7.851292133E+00
7.223322159E+00  8.795241356E+00
7.229897782E+00  8.730325699E+00
7.236473405E+00  7.443465233E+00
7.243049029E+00  5.450073242E+00
7.249624652E+00  4.289710999E+00
7.256200275E+00  5.098596096E+00
7.262775898E+00  5.816144943E+00
7.269351522E+00  6.781407356E+00
7.275927145E+00  6.411534309E+00
7.282502768E+00  6.886837959E+00
7.289078391E+00  6.215978146E+00
7.295654015E+00  5.815555096E+00
7.302229638E+00  5.066750526E+00
7.308805261E+00  4.622461319E+00
7.315380884E+00  3.888013124E+00
7.321956508E+00  3.827807665E+00
7.328532131E+00  3.606192589E+00
7.335107754E+00  3.226626158E+00
7.341683378E+00  2.195011139E+00
7.348259001E+00  2.555830956E+00
7.354834624E+00  2.960513115E+00
7.361410247E+00  3.474804878E+00
7.367985871E+00  2.919108629E+00
7.374561494E+00  2.388015985E+00
7.381137117E+00  1.894841433E+00
7.387712740E+00  1.287883520E+00
7.394288364E+00  3.895871341E-01
7.400863987E+00  -3.059461415E-01
7.407439610E+00  5.186541677E-01
7.414015233E+00  6.468494534E-01
7.420590857E+00  4.339046776E-01
7.427166480E+00  6.958284974E-02
7.433742103E+00  -3.527647257E-01
7.440317727E+00  -4.664913192E-02
7.446893350E+00  6.770266294E-01
7.453468973E+00  1.885063052E+00
7.460044596E+00  2.195301294E+00
7.466620220E+00  2.355233669E+00
7.473195843E+00  2.749325037E+00
7.479771466E+00  3.276451349E+00
7.486347089E+00  3.272015333E+00
7.492922713E+00  2.956918716E+00
7.499498336E+00  5.016904831E+00
7.506073959E+00  6.425310612E+00
7.512649582E+00  8.292428017E+00
7.519225206E+00  7.568627357E+00
7.525800829E+00  6.688887596E+00
7.532376452E+00  5.050576687E+00
7.538952076E+00  5.715844154E+00
7.545527699E+00  6.017332077E+00
7.552103322E+00  6.739814281E+00
7.558678945E+00  7.210530758E+00
7.565254569E+00  7.786001205E+00
7.571830192E+00  9.144021034E+00
7.578405815E+00  1.059151840E+01
7.584981438E+00  1.174742222E+01
7.591557062E+00  1.139007092E+01
7.598132685E+00  1.295404243E+01
7.604708308E+00  1.417273235E+01
7.611283931E+00  1.360960865E+01
7.617859555E+00  1.224463367E+01
7.624435178E+00  1.059048176E+01
7.631010801E+00  1.017203140E+01
7.637586425E+00  9.028807640E+00
7.644162048E+00  8.947896004E+00
7.650737671E+00  8.530835152E+00
7.657313294E+00  8.620378494E+00
7.663888918E+00  7.598348618E+00
7.670464541E+00  6.534070492E+00
7.677040164E+00  5.084280491E+00
7.683615787E+00  4.763141155E+00
7.690191411E+00  3.855333328E+00
7.696767034E+00  3.332066059E+00
7.703342657E+00  2.151862860E+00
7.709918281E+00  2.412413359E+00
7.716493904E+00  2.949208021E+00
7.723069527E+00  2.504969835E+00
7.729645150E+00  3.672037363E+00
7.736220774E+00  3.868925571E+00
7.742796397E+00  4.604974270E+00
7.749372020E+00  4.448607922E+00
7.755947643E+00  6.051748753E+00
7.762523267E+00  6.780676365E+00
7.769098890E+00  7.564657211E+00
7.775674513E+00  8.766063690E+00
7.782250136E+00  9.459666252E+00
7.788825760E+00  9.345722198E+00
7.795401383E+00  9.738741875E+00
7.801977006E+00  1.084727383E+01
7.808552630E+00  1.357224464E+01
7.815128253E+00  1.677893066E+01
7.821703876E+00  1.937117386E+01
7.828279499E+00  2.064295197E+01
7.834855123E+00  2.190776253E+01
7.841430746E+00  2.360019302E+01
7.848006369E+00  2.507328033E+01
7.854581992E+00  2.663757706E+01
7.861157616E+00  2.980528831E+01
7.867733239E+00  3.248119736E+01
7.874308862E+00  3.588550568E+01
7.880884485E+00  4.056410599E+01
7.887460109E+00  4.565369415E+01
7.894035732E+00  5.189302826E+01
7.900611355E+00  5.710630417E+01
7.907186979E+00  6.373442841E+01
7.913762602E+00  7.001663971E+01
7.920338225E+00  8.000662994E+01
7.926913848E+00  8.991581726E+01
7.933489472E+00  1.018682098E+02
7.940065095E+00  1.142842102E+02
7.946640718E+00  1.286916504E+02
7.953216341E+00  1.460924835E+02
7.959791965E+00  1.657142487E+02
7.966367588E+00  1.883743591E+02
7.972943211E+00  2.136167450E+02
7.979518834E+00  2.433481903E+02
7.986094458E+00  2.756287537E+02
7.992670081E+00  3.126166992E+02
7.999245704E+00  3.523833008E+02
8.005821328E+00  3.951063843E+02
8.012396951E+00  4.369915161E+02
8.018972574E+00  4.763703003E+02
8.025548197E+00  5.107285767E+02
8.032123821E+00  5.391675415E+02
8.038699444E+00  5.624200439E+02
8.045275067E+00  5.806073608E+02
8.051850690E+00  5.908510132E+02
8.058426314E+00  5.921588135E+02
8.065001937E+00  5.819933472E+02
8.071577560E+00  5.660894165E+02
8.078153183E+00  5.379426270E+02
8.084728807E+00  5.085111084E+02
8.091304430E+00  4.703007202E+02
8.097880053E+00  4.353793030E+02
8.104455677E+00  3.981609497E+02
8.111031300E+00  3.697374878E+02
8.117606923E+00  3.396460266E+02
8.124182546E+00  3.155672302E+02
8.130758170E+00  2.905064697E+02
8.137333793E+00  2.705208130E+02
8.143909416E+00  2.498217316E+02
8.150485039E+00  2.305576172E+02
8.157060663E+00  2.118568726E+02
8.163636286E+00  1.946657410E+02
8.170211909E+00  1.786966095E+02
8.176787532E+00  1.635871429E+02
8.183363156E+00  1.514335022E+02
8.189938779E+00  1.412512817E+02
8.196514402E+00  1.322757874E+02
8.203090026E+00  1.238712540E+02
8.209665649E+00  1.172627411E+02
8.216241272E+00  1.102021790E+02
8.222816895E+00  1.023052521E+02
8.229392519E+00  9.474382019E+01
8.235968142E+00  8.944412231E+01
8.242543765E+00  8.496376801E+01
8.249119388E+00  8.054785156E+01
8.255695012E+00  7.558112335E+01
8.262270635E+00  7.257432556E+01
8.268846258E+00  6.984581757E+01
8.275421881E+00  6.624911499E+01
8.281997505E+00  6.403274536E+01
8.288573128E+00  6.225875092E+01
8.295148751E+00  5.915320206E+01
8.301724375E+00  5.625469971E+01
8.308299998E+00  5.455105209E+01
8.314875621E+00  5.175566101E+01
8.321451244E+00  4.918300629E+01
8.328026868E+00  4.752305222E+01
8.334602491E+00  4.667768478E+01
8.341178114E+00  4.470991898E+01
8.347753737E+00  4.179165649E+01
8.354329361E+00  3.911042786E+01
8.360904984E+00  3.561693954E+01
8.367480607E+00  3.338495255E+01
8.374056230E+00  3.123822021E+01
8.380631854E+00  2.893359947E+01
8.387207477E+00  2.743839264E+01
8.393783100E+00  2.551140594E+01
8.400358724E+00  2.454181290E+01
8.406934347E+00  2.224788475E+01
8.413509970E+00  2.148704720E+01
8.420085593E+00  1.923782158E+01
8.426661217E+00  1.838154984E+01
8.433236840E+00  1.634205818E+01
8.439812463E+00  1.597285366E+01
8.446388086E+00  1.457616997E+01
8.452963710E+00  1.265248108E+01
8.459539333E+00  1.102696514E+01
8.466114956E+00  1.111073494E+01
8.472690579E+00  1.219674015E+01
8.479266203E+00  1.380009174E+01
8.485841826E+00  1.539098358E+01
8.492417449E+00  1.576968288E+01
8.498993073E+00  1.593958378E+01
8.505568696E+00  1.491335869E+01
8.512144319E+00  1.210309410E+01
8.518719942E+00  9.457011223E+00
8.525295566E+00  9.713860512E+00
8.531871189E+00  1.032968044E+01
8.538446812E+00  1.140260220E+01
8.545022435E+00  1.263720608E+01
8.551598059E+00  1.424491024E+01
8.558173682E+00  1.560559559E+01
8.564749305E+00  1.613430214E+01
8.571324928E+00  1.630369186E+01
8.577900552E+00  1.617773819E+01
8.584476175E+00  1.659093094E+01
8.591051798E+00  1.653108215E+01
8.597627422E+00  1.780973625E+01
8.604203045E+00  1.898307419E+01
8.610778668E+00  1.845395851E+01
8.617354291E+00  1.627076530E+01
8.623929915E+00  1.456976414E+01
8.630505538E+00  1.336662102E+01
8.637081161E+00  1.388061810E+01
8.643656784E+00  1.336082649E+01
8.650232408E+00  1.261881924E+01
8.656808031E+00  1.304771137E+01
8.663383654E+00  1.343466377E+01
8.669959277E+00  1.294525623E+01
8.676534901E+00  1.076020432E+01
8.683110524E+00  8.344892502E+00
8.689686147E+00  5.855132103E+00
8.696261771E+00  5.656207085E+00
8.702837394E+00  4.144161701E+00
8.709413017E+00  2.479686975E+00
8.715988640E+00  2.446517467E+00
8.722564264E+00  4.006608963E+00
8.729139887E+00  4.201992035E+00
8.735715510E+00  4.209460735E+00
8.742291133E+00  5.126704216E+00
8.748866757E+00  7.892717361E+00
8.755442380E+00  1.007881546E+01
8.762018003E+00  1.126314831E+01
8.768593626E+00  1.217376423E+01
8.775169250E+00  1.254798698E+01
8.781744873E+00  1.362850761E+01
8.788320496E+00  1.445196247E+01
8.794896120E+00  1.623613548E+01
8.801471743E+00  1.760701561E+01
8.808047366E+00  1.707974815E+01
8.814622989E+00  1.595121670E+01
8.821198613E+00  1.426635075E+01
8.827774236E+00  1.281422138E+01
8.834349859E+00  1.352696514E+01
8.840925482E+00  1.364384937E+01
8.847501106E+00  1.470931721E+01
8.854076729E+00  1.460082340E+01
8.860652352E+00  1.489650536E+01
8.867227975E+00  1.416864491E+01
8.873803599E+00  1.378151798E+01
8.880379222E+00  1.432645512E+01
8.886954845E+00  1.575318623E+01
8.893530469E+00  1.748263931E+01
8.900106092E+00  1.843574142E+01
8.906681715E+00  1.989914894E+01
8.913257338E+00  2.043832779E+01
8.919832962E+00  2.165292931E+01
8.926408585E+00  2.056350708E+01
8.932984208E+00  2.152703857E+01
8.939559831E+00  2.242053223E+01
8.946135455E+00  2.399452782E+01
8.952711078E+00  2.508404160E+01
8.959286701E+00  2.625114441E+01
8.965862324E+00  2.803984451E+01
8.972437948E+00  3.115430450E+01
8.979013571E+00  3.485386658E+01
8.985589194E+00  3.784952927E+01
8.992164818E+00  4.036402130E+01
8.998740441E+00  4.261810303E+01
9.005316064E+00  4.540578842E+01
9.011891687E+00  4.711874771E+01
9.018467311E+00  4.831807327E+01
9.025042934E+00  5.008781433E+01
9.031618557E+00  5.262090302E+01
9.038194180E+00  5.356290054E+01
9.044769804E+00  5.346660233E+01
9.051345427E+00  5.279836273E+01
9.057921050E+00  5.181751633E+01
9.064496673E+00  5.267937469E+01
9.071072297E+00  5.463398743E+01
9.077647920E+00  5.625511932E+01
9.084223543E+00  5.625374222E+01
9.090799167E+00  5.740577316E+01
9.097374790E+00  5.938701248E+01
9.103950413E+00  6.153099060E+01
9.110526036E+00  6.199006271E+01
9.117101660E+00  6.257382584E+01
9.123677283E+00  6.104888916E+01
9.130252906E+00  6.107933044E+01
9.136828529E+00  6.226622772E+01
9.143404153E+00  6.371115875E+01
9.149979776E+00  6.299615479E+01
9.156555399E+00  6.184045410E+01
9.163131022E+00  6.100724411E+01
9.169706646E+00  6.311029816E+01
9.176282269E+00  6.447724915E+01
9.182857892E+00  6.685712433E+01
9.189433516E+00  7.007023621E+01
9.196009139E+00  7.558923340E+01
9.202584762E+00  8.233307648E+01
9.209160385E+00  9.105419159E+01
9.215736009E+00  1.018019180E+02
9.222311632E+00  1.155318146E+02
9.228887255E+00  1.327023926E+02
9.235462878E+00  1.535128784E+02
9.242038502E+00  1.801947327E+02
9.248614125E+00  2.159310608E+02
9.255189748E+00  2.603151550E+02
9.261765372E+00  3.117459717E+02
9.268340995E+00  3.653455811E+02
9.274916618E+00  4.165383606E+02
9.281492241E+00  4.589170532E+02
9.288067865E+00  4.948928833E+02
9.294643488E+00  5.214008789E+02
9.301219111E+00  5.344982910E+02
9.307794734E+00  5.353154297E+02
9.314370358E+00  5.344959106E+02
9.320945981E+00  5.240905762E+02
9.327521604E+00  5.188699951E+02
9.334097227E+00  4.856803284E+02
9.340672851E+00  4.495578308E+02
9.347248474E+00  4.028672180E+02
9.353824097E+00  3.413951721E+02
9.360399721E+00  2.934542542E+02
9.366975344E+00  2.416704254E+02
9.373550967E+00  2.031555786E+02
9.380126590E+00  1.766211548E+02
9.386702214E+00  1.571580048E+02
9.393277837E+00  1.435049133E+02
9.399853460E+00  1.328533173E+02
9.406429083E+00  1.240352783E+02
9.413004707E+00  1.156811676E+02
9.419580330E+00  1.107123947E+02
9.426155953E+00  1.072666473E+02
9.432731576E+00  1.052042999E+02
9.439307200E+00  1.044115753E+02
9.445882823E+00  1.047688370E+02
9.452458446E+00  1.074967880E+02
9.459034070E+00  1.106437607E+02
9.465609693E+00  1.162424393E+02
9.472185316E+00  1.221619644E+02
9.478760939E+00  1.299008331E+02
9.485336563E+00  1.357436981E+02
9.491912186E+00  1.443072357E+02
9.498487809E+00  1.512784271E+02
9.505063432E+00  1.573984375E+02
9.511639056E+00  1.605774078E+02
9.518214679E+00  1.616497650E+02
9.524790302E+00  1.621687012E+02
9.531365925E+00  1.617547913E+02
9.537941549E+00  1.613737946E+02
9.544517172E+00  1.592996216E+02
9.551092795E+00  1.568032379E+02
9.557668419E+00  1.525291138E+02
9.564244042E+00  1.477624054E+02
9.570819665E+00  1.417745361E+02
9.577395288E+00  1.366885376E+02
9.583970912E+00  1.310400085E+02
9.590546535E+00  1.245398788E+02
9.597122158E+00  1.175352859E+02
9.603697781E+00  1.109046249E+02
9.610273405E+00  1.045145798E+02
9.616849028E+00  9.850722504E+01
9.623424651E+00  9.243820190E+01
9.630000274E+00  8.653212738E+01
9.636575898E+00  7.864541626E+01
9.643151521E+00  7.318628693E+01
9.649727144E+00  6.674066925E+01
9.656302768E+00  6.160299683E+01
9.662878391E+00  5.522248459E+01
9.669454014E+00  4.926076508E+01
9.676029637E+00  4.421735382E+01
9.682605261E+00  4.134274673E+01
9.689180884E+00  3.885472107E+01
9.695756507E+00  3.634654999E+01
9.702332130E+00  3.403357697E+01
9.708907754E+00  3.159598160E+01
9.715483377E+00  3.044100189E+01
9.722059000E+00  2.822538376E+01
9.728634623E+00  2.656143570E+01
9.735210247E+00  2.530512047E+01
9.741785870E+00  2.405018997E+01
9.748361493E+00  2.387574387E+01
9.754937117E+00  2.331987000E+01
9.761512740E+00  2.298167992E+01
9.768088363E+00  2.293050194E+01
9.774663986E+00  2.281476212E+01
9.781239610E+00  2.573307800E+01
9.787815233E+00  2.710681534E+01
9.794390856E+00  2.835294342E+01
9.800966479E+00  2.947045708E+01
9.807542103E+00  3.148471832E+01
9.814117726E+00  3.318817139E+01
9.820693349E+00  3.527560425E+01
9.827268972E+00  3.821572113E+01
9.833844596E+00  4.173503876E+01
9.840420219E+00  4.484132385E+01
9.846995842E+00  4.834701920E+01
9.853571466E+00  5.260802841E+01
9.860147089E+00  5.648855209E+01
9.866722712E+00  6.176343536E+01
9.873298335E+00  6.684520721E+01
9.879873959E+00  7.339788055E+01
9.886449582E+00  7.912351990E+01
9.893025205E+00  8.516075134E+01
9.899600828E+00  9.157297516E+01
9.906176452E+00  9.854665375E+01
9.912752075E+00  1.030294800E+02
9.919327698E+00  1.083763733E+02
9.925903321E+00  1.144686050E+02
9.932478945E+00  1.199321136E+02
9.939054568E+00  1.251828384E+02
9.945630191E+00  1.293271790E+02
9.952205815E+00  1.329691010E+02
9.958781438E+00  1.349947662E+02
9.965357061E+00  1.358079376E+02
9.971932684E+00  1.356195221E+02
9.978508308E+00  1.348025208E+02
9.985083931E+00  1.323642273E+02
9.991659554E+00  1.293109589E+02
9.998235177E+00  1.257886887E+02
1.000481080E+01  1.226372375E+02
1.001138642E+01  1.188585281E+02
1.001796205E+01  1.148822479E+02
1.002453767E+01  1.110975266E+02
1.003111329E+01  1.072431412E+02
1.003768892E+01  1.029157639E+02
1.004426454E+01  9.752553558E+01
1.005084016E+01  9.184883118E+01
1.005741579E+01  8.550137329E+01
1.006399141E+01  7.963111115E+01
1.007056703E+01  7.314966583E+01
1.007714266E+01  6.696769714E+01
1.008371828E+01  6.095335770E+01
1.009029390E+01  5.665402222E+01
1.009686953E+01  5.361803055E+01
1.010344515E+01  5.052360916E+01
1.011002077E+01  4.715249252E+01
1.011659640E+01  4.460526276E+01
1.012317202E+01  4.245222855E+01
1.012974764E+01  4.010744476E+01
1.013632327E+01  3.696543121E+01
1.014289889E+01  3.494462585E+01
1.014947451E+01  3.422225952E+01
1.015605014E+01  3.363570404E+01
1.016262576E+01  3.231726074E+01
1.016920138E+01  3.245390320E+01
1.017577701E+01  3.235858917E+01
1.018235263E+01  3.328078079E+01
1.018892825E+01  3.332541275E+01
1.019550388E+01  3.261011124E+01
1.020207950E+01  3.139458084E+01
1.020865512E+01  2.889995575E+01
1.021523075E+01  2.798700905E+01
1.022180637E+01  2.889834595E+01
1.022838199E+01  2.981358147E+01
1.023495762E+01  3.000412560E+01
1.024153324E+01  3.007585335E+01
1.024810886E+01  3.092663383E+01
1.025468448E+01  3.093236160E+01
1.026126011E+01  3.088298798E+01
1.026783573E+01  3.112901497E+01
1.027441135E+01  3.120356178E+01
1.028098698E+01  3.043075752E+01
1.028756260E+01  2.943161583E+01
1.029413822E+01  2.836230087E+01
1.030071385E+01  2.810066032E+01
1.030728947E+01  2.576673508E+01
1.031386509E+01  2.392588043E+01
1.032044072E+01  2.230263138E+01
1.032701634E+01  2.098676682E+01
1.033359196E+01  1.984687424E+01
1.034016759E+01  1.868807411E+01
1.034674321E+01  1.873247910E+01
1.035331883E+01  1.909283638E+01
1.035989446E+01  1.831940079E+01
1.036647008E+01  1.806887436E+01
1.037304570E+01  1.655411911E+01
1.037962133E+01  1.584688950E+01
1.038619695E+01  1.420156670E+01
1.039277257E+01  1.434128571E+01
1.039934820E+01  1.342766285E+01
1.040592382E+01  1.204078102E+01
1.041249944E+01  1.161277676E+01
1.041907507E+01  1.031895542E+01
1.042565069E+01  9.508946419E+00
1.043222631E+01  9.575350761E+00
1.043880194E+01  9.329229355E+00
1.044537756E+01  9.354107857E+00
1.045195318E+01  1.033703136E+01
1.045852881E+01  1.036445904E+01
1.046510443E+01  9.287502289E+00
1.047168005E+01  9.558342934E+00
1.047825568E+01  9.485124588E+00
1.048483130E+01  8.034676552E+00
1.049140692E+01  8.072753906E+00
1.049798255E+01  9.579366684E+00
1.050455817E+01  9.223485947E+00
1.051113379E+01  7.756597996E+00
1.051770942E+01  7.488288403E+00
1.052428504E+01  7.983997345E+00
1.053086066E+01  8.324294090E+00
1.053743629E+01  8.520404816E+00
1.054401191E+01  8.582571030E+00
1.055058753E+01  7.858427048E+00
1.055716316E+01  7.536419868E+00
1.056373878E+01  8.338677406E+00
1.057031440E+01  8.971692085E+00
1.057689002E+01  8.256204605E+00
1.058346565E+01  7.520268440E+00
1.059004127E+01  6.576302528E+00
1.059661689E+01  7.053120136E+00
1.060319252E+01  7.334895134E+00
1.060976814E+01  7.262822151E+00
1.061634376E+01  6.953964710E+00
1.062291939E+01  6.412582397E+00
1.062949501E+01  6.679547310E+00
1.063607063E+01  6.783026218E+00
1.064264626E+01  7.103227615E+00
1.064922188E+01  7.202970028E+00
1.065579750E+01  7.731002331E+00
1.066237313E+01  6.167609215E+00
1.066894875E+01  4.872952461E+00
1.067552437E+01  2.437170267E+00
1.068210000E+01  2.944049120E+00
1.068867562E+01  4.002274990E+00
1.069525124E+01  4.204419613E+00
1.070182687E+01  3.507310629E+00
1.070840249E+01  3.166605949E+00
1.071497811E+01  3.428686857E+00
1.072155374E+01  4.731343746E+00
1.072812936E+01  4.497234821E+00
1.073470498E+01  5.176366806E+00
1.074128061E+01  5.045900822E+00
1.074785623E+01  5.407907486E+00
1.075443185E+01  5.565443039E+00
1.076100748E+01  4.413857460E+00
1.076758310E+01  3.411987543E+00
1.077415872E+01  2.581181526E+00
1.078073435E+01  3.360767841E+00
1.078730997E+01  4.551904202E+00
1.079388559E+01  3.508007765E+00
1.080046122E+01  2.078114510E+00
1.080703684E+01  3.383263350E-01
1.081361246E+01  -1.835809201E-01
1.082018809E+01  -2.991713583E-01
1.082676371E+01  -1.276048660E+00
1.083333933E+01  -5.946919918E-01
1.083991496E+01  1.474395871E+00
1.084649058E+01  2.929769993E+00
1.085306620E+01  4.216778278E+00
1.085964183E+01  3.261739969E+00
1.086621745E+01  3.800558567E+00
1.087279307E+01  3.965636492E+00
1.087936870E+01  4.266830444E+00
1.088594432E+01  2.784321785E+00
1.089251994E+01  2.539710760E+00
1.089909556E+01  2.261150837E+00
1.090567119E+01  2.147998095E+00
1.091224681E+01  2.053425074E+00
1.091882243E+01  2.387742996E+00
1.092539806E+01  3.246815920E+00
1.093197368E+01  4.746046543E+00
1.093854930E+01  4.740098953E+00
1.094512493E+01  4.204248905E+00
1.095170055E+01  4.541507721E+00
1.095827617E+01  5.151471138E+00
1.096485180E+01  5.195942879E+00
1.097142742E+01  5.457819462E+00
1.097800304E+01  5.502223492E+00
1.098457867E+01  4.463121891E+00
1.099115429E+01  4.617544651E+00
1.099772991E+01  2.548182011E+00
1.100430554E+01  1.771800637E+00
1.101088116E+01  1.364242554E+00
1.101745678E+01  2.672827721E+00
1.102403241E+01  1.586860776E+00
1.103060803E+01  1.624055505E+00
1.103718365E+01  1.486199141E+00
1.104375928E+01  2.930245399E+00
1.105033490E+01  3.260989666E+00
1.105691052E+01  4.534682274E+00
1.106348615E+01  5.949163914E+00
1.107006177E+01  6.850704193E+00
1.107663739E+01  8.374134064E+00
1.108321302E+01  9.602028847E+00
1.108978864E+01  9.999279022E+00
1.109636426E+01  1.198681641E+01
1.110293989E+01  1.135324192E+01
1.110951551E+01  1.071770954E+01
1.111609113E+01  8.467922211E+00
1.112266676E+01  8.014032364E+00
1.112924238E+01  7.646556377E+00
1.113581800E+01  8.103267670E+00
1.114239363E+01  8.821151733E+00
1.114896925E+01  8.715214729E+00
1.115554487E+01  9.183366776E+00
1.116212050E+01  8.312966347E+00
1.116869612E+01  8.108358383E+00
1.117527174E+01  7.840976715E+00
1.118184737E+01  9.576683044E+00
1.118842299E+01  1.015038109E+01
1.119499861E+01  1.052441406E+01
1.120157424E+01  1.007518768E+01
1.120814986E+01  9.838775635E+00
1.121472548E+01  9.824883461E+00
1.122130111E+01  1.081128788E+01
1.122787673E+01  1.109724808E+01
1.123445235E+01  1.222128773E+01
1.124102797E+01  1.268628407E+01
1.124760360E+01  1.154785824E+01
1.125417922E+01  1.096221828E+01
1.126075484E+01  1.123938465E+01
1.126733047E+01  1.138665009E+01
1.127390609E+01  1.168914318E+01
1.128048171E+01  1.328746986E+01
1.128705734E+01  1.433346844E+01
1.129363296E+01  1.742478561E+01
1.130020858E+01  1.918397331E+01
1.130678421E+01  2.005097961E+01
1.131335983E+01  1.915373802E+01
1.131993545E+01  1.785896111E+01
1.132651108E+01  1.793766594E+01
1.133308670E+01  1.643284225E+01
1.133966232E+01  1.653592491E+01
1.134623795E+01  1.825232124E+01
1.135281357E+01  1.842825890E+01
1.135938919E+01  1.668096542E+01
1.136596482E+01  1.678148651E+01
1.137254044E+01  1.562000275E+01
1.137911606E+01  1.503055191E+01
1.138569169E+01  1.529248333E+01
1.139226731E+01  1.510360718E+01
1.139884293E+01  1.589757156E+01
1.140541856E+01  1.666906357E+01
1.141199418E+01  1.705632401E+01
1.141856980E+01  1.772591209E+01
1.142514543E+01  2.016421509E+01
1.143172105E+01  2.149286652E+01
1.143829667E+01  2.254639435E+01
1.144487230E+01  2.261488914E+01
1.145144792E+01  2.286343765E+01
1.145802354E+01  2.093368912E+01
1.146459917E+01  1.927295113E+01
1.147117479E+01  1.720499611E+01
1.147775041E+01  1.649597168E+01
1.148432604E+01  1.543448734E+01
1.149090166E+01  1.577496433E+01
1.149747728E+01  1.539731121E+01
1.150405291E+01  1.446512318E+01
1.151062853E+01  1.281630802E+01
1.151720415E+01  1.194453049E+01
1.152377978E+01  1.254608822E+01
1.153035540E+01  1.311610317E+01
1.153693102E+01  1.353250790E+01
1.154350665E+01  1.338465405E+01
1.155008227E+01  1.194157982E+01
1.155665789E+01  1.192593193E+01
1.156323351E+01  1.242363739E+01
1.156980914E+01  1.279308033E+01
1.157638476E+01  1.252936172E+01
1.158296038E+01  1.200013924E+01
1.158953601E+01  1.158429909E+01
1.159611163E+01  1.075643063E+01
1.160268725E+01  9.749911308E+00
1.160926288E+01  7.873311043E+00
1.161583850E+01  8.117820740E+00
1.162241412E+01  8.790059090E+00
1.162898975E+01  9.933461189E+00
1.163556537E+01  1.167398548E+01
1.164214099E+01  1.285585022E+01
1.164871662E+01  1.334525108E+01
1.165529224E+01  1.113191795E+01
1.166186786E+01  9.283711433E+00
1.166844349E+01  7.398276806E+00
1.167501911E+01  7.546895981E+00
1.168159473E+01  9.272045135E+00
1.168817036E+01  1.059765053E+01
1.169474598E+01  1.210525608E+01
1.170132160E+01  1.348187923E+01
1.170789723E+01  1.314305592E+01
1.171447285E+01  1.141155338E+01
1.172104847E+01  1.002225018E+01
1.172762410E+01  9.795967102E+00
1.173419972E+01  9.909482956E+00
1.174077534E+01  1.002688694E+01
1.174735097E+01  1.049732876E+01
1.175392659E+01  1.082279301E+01
1.176050221E+01  1.074403763E+01
1.176707784E+01  1.050133228E+01
1.177365346E+01  9.839346886E+00
1.178022908E+01  9.756167412E+00
1.178680471E+01  1.085730648E+01
1.179338033E+01  1.107249641E+01
1.179995595E+01  1.038322735E+01
1.180653158E+01  8.967769623E+00
1.181310720E+01  9.238765717E+00
1.181968282E+01  1.039645958E+01
1.182625845E+01  1.139011574E+01
1.183283407E+01  1.077202892E+01
1.183940969E+01  1.150659943E+01
1.184598532E+01  1.184289646E+01
1.185256094E+01  1.129707718E+01
1.185913656E+01  1.053031731E+01
1.186571219E+01  1.100652313E+01
1.187228781E+01  1.211733723E+01
1.187886343E+01  1.277539349E+01
1.188543906E+01  1.191432095E+01
1.189201468E+01  1.155465794E+01
1.189859030E+01  1.085024452E+01
1.190516592E+01  1.056526756E+01
1.191174155E+01  1.088090324E+01
1.191831717E+01  1.095244789E+01
1.192489279E+01  1.171741962E+01
1.193146842E+01  1.149419594E+01
1.193804404E+01  1.123493767E+01
1.194461966E+01  1.069551659E+01
1.195119529E+01  1.081344128E+01
1.195777091E+01  1.170688343E+01
1.196434653E+01  1.265856171E+01
1.197092216E+01  1.408302975E+01
1.197749778E+01  1.377179241E+01
1.198407340E+01  1.418969440E+01
1.199064903E+01  1.356329346E+01
1.199722465E+01  1.224415207E+01
1.200380027E+01  1.246371078E+01
1.201037590E+01  1.204227734E+01
1.201695152E+01  1.201158619E+01
1.202352714E+01  1.213335228E+01
1.203010277E+01  1.256381989E+01
1.203667839E+01  1.256177425E+01
1.204325401E+01  1.316285706E+01
1.204982964E+01  1.303112984E+01
1.205640526E+01  1.278621960E+01
1.206298088E+01  1.233779526E+01
1.206955651E+01  1.169708920E+01
1.207613213E+01  1.051986694E+01
1.208270775E+01  1.006638813E+01
1.208928338E+01  9.961662292E+00
1.209585900E+01  1.079847240E+01
1.210243462E+01  1.041081524E+01
1.210901025E+01  1.031384373E+01
1.211558587E+01  1.055542660E+01
1.212216149E+01  1.226986122E+01
1.212873712E+01  1.343373299E+01
1.213531274E+01  1.356318092E+01
1.214188836E+01  1.215774441E+01
1.214846399E+01  1.161588955E+01
1.215503961E+01  1.180727959E+01
1.216161523E+01  1.102882385E+01
1.216819086E+01  1.018436623E+01
1.217476648E+01  8.631855965E+00
1.218134210E+01  8.891352654E+00
1.218791773E+01  9.547370911E+00
1.219449335E+01  1.052768803E+01
1.220106897E+01  1.136750317E+01
1.220764460E+01  1.199606228E+01
1.221422022E+01  1.271321392E+01
1.222079584E+01  1.381929779E+01
1.222737146E+01  1.488418293E+01
1.223394709E+01  1.564863873E+01
1.224052271E+01  1.582706642E+01
1.224709833E+01  1.502937412E+01
1.225367396E+01  1.522826099E+01
1.226024958E+01  1.582660294E+01
1.226682520E+01  1.779660988E+01
1.227340083E+01  1.985902596E+01
1.227997645E+01  2.020627022E+01
1.228655207E+01  2.052881050E+01
1.229312770E+01  2.169387054E+01
1.229970332E+01  2.258575821E+01
1.230627894E+01  2.395011139E+01
1.231285457E+01  2.511996651E+01
1.231943019E+01  2.673109055E+01
1.232600581E+01  2.680792046E+01
1.233258144E+01  2.636610603E+01
1.233915706E+01  2.755751801E+01
1.234573268E+01  2.942514420E+01
1.235230831E+01  3.090942764E+01
1.235888393E+01  3.327991104E+01
1.236545955E+01  3.480906296E+01
1.237203518E+01  3.499885178E+01
1.237861080E+01  3.590298462E+01
1.238518642E+01  3.692039871E+01
1.239176205E+01  3.680548859E+01
1.239833767E+01  3.663344955E+01
1.240491329E+01  3.639256668E+01
1.241148892E+01  3.861603546E+01
1.241806454E+01  3.908852768E+01
1.242464016E+01  3.873923492E+01
1.243121579E+01  3.926152039E+01
1.243779141E+01  4.088730621E+01
1.244436703E+01  4.181776810E+01
1.245094266E+01  4.200065231E+01
1.245751828E+01  4.402238464E+01
1.246409390E+01  4.483169174E+01
1.247066953E+01  4.583531189E+01
1.247724515E+01  4.430961227E+01
1.248382077E+01  4.350019836E+01
1.249039640E+01  4.291635132E+01
1.249697202E+01  4.385543823E+01
1.250354764E+01  4.460799026E+01
1.251012327E+01  4.497528458E+01
1.251669889E+01  4.609600449E+01
1.252327451E+01  4.785150528E+01
1.252985014E+01  5.041318893E+01
1.253642576E+01  5.306280518E+01
1.254300138E+01  5.513972855E+01
1.254957700E+01  5.634465790E+01
1.255615263E+01  5.868542862E+01
1.256272825E+01  5.981782150E+01
1.256930387E+01  6.068229294E+01
1.257587950E+01  5.989214325E+01
1.258245512E+01  6.181410217E+01
1.258903074E+01  6.353853226E+01
1.259560637E+01  6.532521820E+01
1.260218199E+01  6.608191681E+01
1.260875761E+01  6.688579559E+01
1.261533324E+01  6.689363098E+01
1.262190886E+01  6.734764099E+01
1.262848448E+01  6.675957489E+01
1.263506011E+01  6.691364288E+01
1.264163573E+01  6.652033234E+01
1.264821135E+01  6.639606476E+01
1.265478698E+01  6.697594452E+01
1.266136260E+01  6.656272888E+01
1.266793822E+01  6.618183899E+01
1.267451385E+01  6.552373505E+01
1.268108947E+01  6.514165497E+01
1.268766509E+01  6.409666443E+01
1.269424072E+01  6.320030594E+01
1.270081634E+01  6.346871567E+01
1.270739196E+01  6.445123291E+01
1.271396759E+01  6.393058395E+01
1.272054321E+01  6.037699509E+01
1.272711883E+01  5.709516907E+01
1.273369446E+01  5.541226578E+01
1.274027008E+01  5.391080856E+01
1.274684570E+01  5.243357849E+01
1.275342133E+01  5.159727097E+01
1.275999695E+01  5.071390533E+01
1.276657257E+01  4.932302475E+01
1.277314820E+01  4.736066055E+01
1.277972382E+01  4.655141830E+01
1.278629944E+01  4.543337250E+01
1.279287507E+01  4.417252731E+01
1.279945069E+01  4.113801575E+01
1.280602631E+01  4.013792419E+01
1.281260194E+01  3.723034286E+01
1.281917756E+01  3.584055328E+01
1.282575318E+01  3.468386459E+01
1.283232881E+01  3.389062881E+01
1.283890443E+01  3.297596741E+01
1.284548005E+01  3.109561920E+01
1.285205568E+01  3.000640106E+01
1.285863130E+01  2.932987404E+01
1.286520692E+01  2.914316750E+01
1.287178255E+01  2.878805542E+01
1.287835817E+01  2.940075302E+01
1.288493379E+01  2.967948151E+01
1.289150941E+01  3.007344055E+01
1.289808504E+01  2.905722618E+01
1.290466066E+01  2.870796776E+01
1.291123628E+01  2.802223396E+01
1.291781191E+01  2.853223991E+01
1.292438753E+01  2.806609726E+01
1.293096315E+01  2.791481018E+01
1.293753878E+01  2.851978111E+01
1.294411440E+01  3.082924080E+01
1.295069002E+01  3.291203308E+01
1.295726565E+01  3.346737671E+01
1.296384127E+01  3.493667221E+01
1.297041689E+01  3.762607574E+01
1.297699252E+01  4.055072403E+01
1.298356814E+01  4.209001160E+01
1.299014376E+01  4.320146561E+01
1.299671939E+01  4.420442963E+01
1.300329501E+01  4.747781372E+01
1.300987063E+01  5.103480911E+01
1.301644626E+01  5.578412247E+01
1.302302188E+01  6.034148026E+01
1.302959750E+01  6.562632751E+01
1.303617313E+01  7.040380859E+01
1.304274875E+01  7.558654785E+01
1.304932437E+01  8.152511597E+01
1.305590000E+01  8.904669952E+01
1.306247562E+01  9.781388855E+01
1.306905124E+01  1.075923233E+02
1.307562687E+01  1.173097458E+02
1.308220249E+01  1.267327728E+02
1.308877811E+01  1.364195099E+02
1.309535374E+01  1.458050232E+02
1.310192936E+01  1.559815979E+02
1.310850498E+01  1.654414368E+02
1.311508061E+01  1.776562195E+02
1.312165623E+01  1.889008331E+02
1.312823185E+01  2.003315277E+02
1.313480748E+01  2.116416779E+02
1.314138310E+01  2.203478546E+02
1.314795872E+01  2.254647217E+02
1.315453435E+01  2.280835571E+02
1.316110997E+01  2.296628418E+02
1.316768559E+01  2.286918488E+02
1.317426122E+01  2.263345795E+02
1.318083684E+01  2.226384125E+02
1.318741246E+01  2.163601532E+02
1.319398809E+01  2.105681305E+02
1.320056371E+01  2.042008209E+02
1.320713933E+01  1.983309174E+02
1.321371495E+01  1.904359436E+02
1.322029058E+01  1.847722321E+02
1.322686620E+01  1.772591705E+02
1.323344182E+01  1.735969238E+02
1.324001745E+01  1.691668243E+02
1.324659307E+01  1.653316040E+02
1.325316869E+01  1.609496613E+02
1.325974432E+01  1.558153687E+02
1.326631994E+01  1.496362152E+02
1.327289556E+01  1.435586700E+02
1.327947119E+01  1.369069061E+02
1.328604681E+01  1.279245453E+02
1.329262243E+01  1.198234634E+02
1.329919806E+01  1.122315674E+02
1.330577368E+01  1.044159164E+02
1.331234930E+01  9.499806213E+01
1.331892493E+01  8.581000519E+01
1.332550055E+01  7.628288269E+01
1.333207617E+01  6.788931274E+01
1.333865180E+01  5.996472931E+01
1.334522742E+01  5.510725403E+01
1.335180304E+01  5.017087936E+01
1.335837867E+01  4.508868408E+01
1.336495429E+01  3.965899658E+01
1.337152991E+01  3.595016098E+01
1.337810554E+01  3.407447815E+01
1.338468116E+01  3.249628830E+01
1.339125678E+01  3.077222252E+01
1.339783241E+01  2.842571640E+01
1.340440803E+01  2.697385597E+01
1.341098365E+01  2.445081520E+01
1.341755928E+01  2.261587334E+01
1.342413490E+01  1.935379410E+01
1.343071052E+01  1.626467705E+01
1.343728615E+01  1.480506706E+01
1.344386177E+01  1.414196014E+01
1.345043739E+01  1.397164917E+01
1.345701302E+01  1.380048466E+01
1.346358864E+01  1.278276920E+01
1.347016426E+01  1.225542068E+01
1.347673989E+01  1.193914604E+01
1.348331551E+01  1.238521862E+01
1.348989113E+01  1.212294006E+01
1.349646676E+01  1.077633667E+01
1.350304238E+01  1.056757641E+01
1.350961800E+01  1.129353619E+01
1.351619363E+01  1.137267208E+01
1.352276925E+01  1.074004269E+01
1.352934487E+01  1.033948994E+01
1.353592050E+01  1.093565941E+01
1.354249612E+01  1.194358253E+01
1.354907174E+01  1.368600655E+01
1.355564736E+01  1.343489170E+01
1.356222299E+01  1.285136032E+01
1.356879861E+01  1.073910809E+01
1.357537423E+01  1.124265194E+01
1.358194986E+01  1.160367298E+01
1.358852548E+01  1.373621273E+01
1.359510110E+01  1.402989960E+01
1.360167673E+01  1.526937771E+01
1.360825235E+01  1.611331367E+01
1.361482797E+01  1.664810562E+01
1.362140360E+01  1.615546608E+01
1.362797922E+01  1.708751297E+01
1.363455484E+01  1.617566109E+01
1.364113047E+01  1.664253426E+01
1.364770609E+01  1.902765274E+01
1.365428171E+01  2.133488846E+01
1.366085734E+01  2.210376167E+01
1.366743296E+01  2.310523033E+01
1.367400858E+01  2.488125801E+01
1.368058421E+01  2.545524406E+01
1.368715983E+01  2.510547829E+01
1.369373545E+01  2.349159431E+01
1.370031108E+01  2.363455772E+01
1.370688670E+01  2.607633018E+01
1.371346232E+01  2.911863708E+01
1.372003795E+01  3.298117828E+01
1.372661357E+01  3.573570251E+01
1.373318919E+01  3.881285095E+01
1.373976482E+01  3.909736252E+01
1.374634044E+01  3.912730026E+01
1.375291606E+01  3.920391464E+01
1.375949169E+01  4.114750290E+01
1.376606731E+01  4.315042496E+01
1.377264293E+01  4.561501312E+01
1.377921856E+01  4.553149033E+01
1.378579418E+01  4.669916534E+01
1.379236980E+01  4.718199158E+01
1.379894543E+01  4.792673874E+01
1.380552105E+01  4.710674286E+01
1.381209667E+01  4.740169144E+01
1.381867230E+01  4.982818604E+01
1.382524792E+01  5.101708603E+01
1.383182354E+01  4.959973907E+01
1.383839917E+01  4.828855515E+01
1.384497479E+01  4.747904587E+01
1.385155041E+01  4.628840256E+01
1.385812604E+01  4.576644135E+01
1.386470166E+01  4.463631058E+01
1.387127728E+01  4.422956085E+01
1.387785290E+01  4.487628174E+01
1.388442853E+01  4.477130508E+01
1.389100415E+01  4.307723618E+01
1.389757977E+01  4.105287170E+01
1.390415540E+01  3.938572311E+01
1.391073102E+01  3.750791550E+01
1.391730664E+01  3.625735855E+01
1.392388227E+01  3.428248215E+01
1.393045789E+01  3.194218445E+01
1.393703351E+01  3.183363152E+01
1.394360914E+01  3.162333107E+01
1.395018476E+01  3.130053520E+01
1.395676038E+01  3.073780251E+01
1.396333601E+01  3.094831085E+01
1.396991163E+01  3.061369514E+01
1.397648725E+01  2.931890678E+01
1.398306288E+01  2.785299873E+01
1.398963850E+01  2.820716858E+01
1.399621412E+01  2.773149872E+01
1.400278975E+01  2.575214577E+01
1.400936537E+01  2.478032112E+01
1.401594099E+01  2.385213852E+01
1.402251662E+01  2.398027039E+01
1.402909224E+01  2.111928749E+01
1.403566786E+01  2.031212807E+01
1.404224349E+01  2.075799179E+01
1.404881911E+01  2.193585014E+01
1.405539473E+01  2.208395958E+01
1.406197036E+01  2.235317039E+01
1.406854598E+01  2.230448914E+01
1.407512160E+01  2.158192825E+01
1.408169723E+01  2.139249229E+01
1.408827285E+01  2.015802574E+01
1.409484847E+01  1.852107620E+01
1.410142410E+01  1.791667938E+01
1.410799972E+01  1.833406067E+01
1.411457534E+01  1.937964058E+01
1.412115097E+01  1.911052322E+01
1.412772659E+01  1.818195724E+01
1.413430221E+01  1.739665604E+01
1.414087784E+01  1.722530174E+01
1.414745346E+01  1.534805012E+01
1.415402908E+01  1.433812714E+01
1.416060471E+01  1.385958004E+01
1.416718033E+01  1.352519035E+01
1.417375595E+01  1.321287537E+01
1.418033158E+01  1.329030323E+01
1.418690720E+01  1.463979340E+01
1.419348282E+01  1.554014874E+01
1.420005844E+01  1.756217003E+01
1.420663407E+01  2.050370789E+01
1.421320969E+01  2.164015961E+01
1.421978531E+01  2.139681816E+01
1.422636094E+01  2.057008171E+01
1.423293656E+01  2.017606926E+01
1.423951218E+01  1.933637619E+01
1.424608781E+01  1.917650032E+01
1.425266343E+01  1.935173035E+01
1.425923905E+01  1.971559715E+01
1.426581468E+01  1.939164925E+01
1.427239030E+01  1.936086464E+01
1.427896592E+01  1.936886215E+01
1.428554155E+01  1.844593620E+01
1.429211717E+01  1.803204346E+01
1.429869279E+01  1.838404083E+01
1.430526842E+01  1.861375809E+01
1.431184404E+01  1.738381577E+01
1.431841966E+01  1.711805534E+01
1.432499529E+01  1.705623817E+01
1.433157091E+01  1.768959045E+01
1.433814653E+01  1.700445747E+01
1.434472216E+01  1.623912811E+01
1.435129778E+01  1.493463039E+01
1.435787340E+01  1.479165745E+01
1.436444903E+01  1.412564659E+01
1.437102465E+01  1.354548931E+01
1.437760027E+01  1.391593742E+01
1.438417590E+01  1.353874779E+01
1.439075152E+01  1.193345356E+01
1.439732714E+01  1.226899719E+01
1.440390277E+01  1.232711315E+01
1.441047839E+01  1.107166290E+01
1.441705401E+01  1.119355774E+01
1.442362964E+01  1.152237606E+01
1.443020526E+01  1.180469131E+01
1.443678088E+01  1.245504093E+01
1.444335651E+01  1.191823673E+01
1.444993213E+01  1.085832405E+01
1.445650775E+01  1.045546627E+01
1.446308338E+01  1.111931229E+01
1.446965900E+01  1.055150700E+01
1.447623462E+01  1.102937603E+01
1.448281025E+01  1.235270786E+01
1.448938587E+01  1.424560547E+01
1.449596149E+01  1.480522060E+01
1.450253712E+01  1.594852924E+01
1.450911274E+01  1.724241066E+01
1.451568836E+01  1.792562103E+01
1.452226399E+01  1.737265778E+01
1.452883961E+01  1.661134148E+01
1.453541523E+01  1.632428169E+01
1.454199085E+01  1.553783607E+01
1.454856648E+01  1.439311218E+01
1.455514210E+01  1.390231323E+01
1.456171772E+01  1.337647343E+01
1.456829335E+01  1.224186420E+01
1.457486897E+01  1.126020622E+01
1.458144459E+01  1.170006180E+01
1.458802022E+01  1.038516998E+01
1.459459584E+01  9.606069565E+00
1.460117146E+01  8.832988739E+00
1.460774709E+01  9.189968109E+00
1.461432271E+01  1.108718300E+01
1.462089833E+01  1.234301376E+01
1.462747396E+01  1.105074787E+01
1.463404958E+01  1.098384762E+01
1.464062520E+01  1.064820004E+01
1.464720083E+01  1.015174675E+01
1.465377645E+01  9.433972359E+00
1.466035207E+01  8.633092880E+00
1.466692770E+01  8.933713913E+00
1.467350332E+01  9.332941055E+00
1.468007894E+01  8.723389626E+00
1.468665457E+01  8.704706192E+00
1.469323019E+01  8.950755119E+00
1.469980581E+01  9.567044258E+00
1.470638144E+01  1.060536766E+01
1.471295706E+01  1.008773518E+01
1.471953268E+01  1.004347992E+01
1.472610831E+01  8.397930145E+00
1.473268393E+01  7.899168015E+00
1.473925955E+01  7.935898304E+00
1.474583518E+01  8.927098274E+00
1.475241080E+01  8.966058731E+00
1.475898642E+01  8.905835152E+00
1.476556205E+01  8.076533318E+00
1.477213767E+01  7.660305977E+00
1.477871329E+01  7.409128189E+00
1.478528892E+01  7.595481396E+00
1.479186454E+01  7.977684021E+00
1.479844016E+01  8.071376801E+00
1.480501579E+01  8.926866531E+00
1.481159141E+01  1.080246449E+01
1.481816703E+01  1.163861084E+01
1.482474266E+01  1.131812572E+01
1.483131828E+01  1.005097485E+01
1.483789390E+01  1.017847061E+01
1.484446953E+01  1.002141762E+01
1.485104515E+01  9.864972115E+00
1.485762077E+01  9.573390961E+00
1.486419639E+01  9.758492470E+00
1.487077202E+01  9.273299217E+00
1.487734764E+01  9.920545578E+00
1.488392326E+01  9.846713066E+00
1.489049889E+01  9.520549774E+00
1.489707451E+01  7.968908310E+00
1.490365013E+01  7.747940540E+00
1.491022576E+01  7.447489738E+00
1.491680138E+01  6.564627171E+00
1.492337700E+01  7.729724884E+00
1.492995263E+01  8.757728577E+00
1.493652825E+01  9.439658165E+00
1.494310387E+01  9.541147232E+00
1.494967950E+01  9.683785439E+00
1.495625512E+01  9.032135963E+00
1.496283074E+01  8.709259987E+00
1.496940637E+01  8.809899330E+00
1.497598199E+01  8.492764473E+00
1.498255761E+01  8.391178131E+00
1.498913324E+01  7.724892139E+00
1.499570886E+01  8.632603645E+00
1.500228448E+01  9.925866127E+00
1.500886011E+01  1.005344296E+01
1.501543573E+01  1.067503548E+01
1.502201135E+01  1.083853340E+01
1.502858698E+01  1.100588799E+01
1.503516260E+01  1.018788528E+01
1.504173822E+01  1.046513176E+01
1.504831385E+01  1.009841728E+01
1.505488947E+01  9.886125565E+00
1.506146509E+01  9.802913666E+00
1.506804072E+01  1.026875210E+01
1.507461634E+01  1.056396294E+01
1.508119196E+01  1.084386921E+01
1.508776759E+01  1.112560940E+01
1.509434321E+01  1.183891964E+01
1.510091883E+01  1.378072453E+01
1.510749446E+01  1.490370750E+01
1.511407008E+01  1.508047485E+01
1.512064570E+01  1.556595325E+01
1.512722133E+01  1.625130081E+01
1.513379695E+01  1.554378510E+01
1.514037257E+01  1.549325180E+01
1.514694820E+01  1.635754967E+01
1.515352382E+01  1.692235947E+01
1.516009944E+01  1.810226440E+01
1.516667507E+01  1.786360168E+01
1.517325069E+01  1.722934723E+01
1.517982631E+01  1.682843399E+01
1.518640194E+01  1.741478920E+01
1.519297756E+01  1.887026405E+01
1.519955318E+01  2.159233856E+01
1.520612880E+01  2.371676636E+01
1.521270443E+01  2.529628944E+01
1.521928005E+01  2.872935677E+01
1.522585567E+01  3.317319870E+01
1.523243130E+01  3.636902618E+01
1.523900692E+01  3.710590363E+01
1.524558254E+01  3.724662399E+01
1.525215817E+01  3.800114059E+01
1.525873379E+01  4.019758224E+01
1.526530941E+01  4.353857422E+01
1.527188504E+01  4.708221817E+01
1.527846066E+01  4.901795959E+01
1.528503628E+01  5.297372055E+01
1.529161191E+01  5.848172379E+01
1.529818753E+01  6.467868042E+01
1.530476315E+01  7.011096954E+01
1.531133878E+01  7.673366547E+01
1.531791440E+01  8.408386993E+01
1.532449002E+01  9.034957886E+01
1.533106565E+01  9.761574554E+01
1.533764127E+01  1.063398972E+02
1.534421689E+01  1.153189087E+02
1.535079252E+01  1.257754440E+02
1.535736814E+01  1.381113586E+02
1.536394376E+01  1.501806946E+02
1.537051939E+01  1.635351868E+02
1.537709501E+01  1.766670685E+02
1.538367063E+01  1.911788788E+02
1.539024626E+01  2.077205505E+02
1.539682188E+01  2.246627197E+02
1.540339750E+01  2.402344208E+02
1.540997313E+01  2.549635010E+02
1.541654875E+01  2.677435608E+02
1.542312437E+01  2.799881897E+02
1.542970000E+01  2.897901917E+02
1.543627562E+01  2.950915527E+02
1.544285124E+01  2.988815002E+02
1.544942687E+01  2.969662781E+02
1.545600249E+01  2.917902527E+02
1.546257811E+01  2.867973022E+02
1.546915374E+01  2.835870667E+02
1.547572936E+01  2.810140991E+02
1.548230498E+01  2.771570435E+02
1.548888061E+01  2.691277771E+02
1.549545623E+01  2.604360657E+02
1.550203185E+01  2.506444855E+02
1.550860748E+01  2.404429932E+02
1.551518310E+01  2.299229279E+02
1.552175872E+01  2.204056091E+02
1.552833434E+01  2.113188171E+02
1.553490997E+01  2.049179230E+02
1.554148559E+01  2.020599060E+02
1.554806121E+01  1.989034729E+02
1.555463684E+01  1.995511627E+02
1.556121246E+01  1.952432251E+02
1.556778808E+01  2.001749878E+02
1.557436371E+01  1.933406067E+02
1.558093933E+01  1.939871368E+02
1.558751495E+01  1.786228943E+02
1.559409058E+01  1.699548798E+02
1.560066620E+01  1.502033234E+02
1.560724182E+01  1.341094055E+02
1.561381745E+01  1.171916962E+02
1.562039307E+01  1.062421417E+02
1.562696869E+01  9.763280487E+01
1.563354432E+01  9.255604553E+01
1.564011994E+01  8.808313751E+01
1.564669556E+01  8.294402313E+01
1.565327119E+01  7.861672211E+01
1.565984681E+01  7.508264160E+01
1.566642243E+01  7.300532532E+01
1.567299806E+01  6.991992188E+01
1.567957368E+01  6.579563141E+01
1.568614930E+01  6.153477097E+01
1.569272493E+01  5.862267303E+01
1.569930055E+01  5.560131073E+01
1.570587617E+01  5.363374710E+01
1.571245180E+01  5.099144745E+01
1.571902742E+01  4.720418167E+01
1.572560304E+01  4.369576645E+01
1.573217867E+01  4.118054581E+01
1.573875429E+01  4.117706680E+01
1.574532991E+01  4.062038803E+01
1.575190554E+01  4.081665802E+01
1.575848116E+01  4.120240402E+01
1.576505678E+01  4.078153610E+01
1.577163241E+01  3.986265945E+01
1.577820803E+01  3.942723083E+01
1.578478365E+01  4.039372635E+01
1.579135928E+01  4.265717697E+01
1.579793490E+01  4.380208588E+01
1.580451052E+01  4.540659332E+01
1.581108615E+01  4.462209702E+01
1.581766177E+01  4.444862366E+01
1.582423739E+01  4.073923111E+01
1.583081302E+01  3.630986404E+01
1.583738864E+01  2.942667198E+01
1.584396426E+01  2.544710541E+01
1.585053988E+01  2.427500725E+01
1.585711551E+01  2.390503693E+01
1.586369113E+01  2.277081871E+01
1.587026675E+01  2.296369171E+01
1.587684238E+01  2.228788185E+01
1.588341800E+01  2.150708771E+01
1.588999362E+01  1.902367783E+01
1.589656925E+01  1.886355019E+01
1.590314487E+01  1.955943871E+01
1.590972049E+01  2.051126099E+01
1.591629612E+01  1.984060860E+01
1.592287174E+01  1.983362579E+01
1.592944736E+01  1.933797073E+01
1.593602299E+01  1.858996964E+01
1.594259861E+01  1.880788231E+01
1.594917423E+01  1.802783203E+01
1.595574986E+01  1.892754364E+01
1.596232548E+01  2.006266212E+01
1.596890110E+01  2.078961372E+01
1.597547673E+01  2.001560211E+01
1.598205235E+01  2.067712402E+01
1.598862797E+01  2.065793800E+01
1.599520360E+01  2.156494522E+01
1.600177922E+01  2.266226959E+01
1.600835484E+01  2.400602722E+01
1.601493047E+01  2.409861946E+01
1.602150609E+01  2.546149063E+01
1.602808171E+01  2.689684486E+01
1.603465734E+01  2.927622414E+01
1.604123296E+01  3.269626617E+01
1.604780858E+01  3.416864395E+01
1.605438421E+01  3.666646957E+01
1.606095983E+01  3.856567383E+01
1.606753545E+01  4.106202698E+01
1.607411108E+01  4.196115494E+01
1.608068670E+01  4.404427719E+01
1.608726232E+01  4.718490219E+01
1.609383795E+01  4.988641739E+01
1.610041357E+01  5.457995605E+01
1.610698919E+01  6.049889755E+01
1.611356482E+01  6.439176941E+01
1.612014044E+01  6.433911133E+01
1.612671606E+01  6.272228622E+01
1.613329169E+01  6.302956009E+01
1.613986731E+01  6.261689758E+01
1.614644293E+01  6.280315399E+01
1.615301856E+01  6.191450500E+01
1.615959418E+01  5.927372742E+01
1.616616980E+01  5.786178970E+01
1.617274543E+01  5.738183975E+01
1.617932105E+01  5.832462311E+01
1.618589667E+01  5.751585007E+01
1.619247229E+01  5.526560211E+01
1.619904792E+01  5.284491348E+01
1.620562354E+01  5.111757660E+01
1.621219916E+01  4.972473907E+01
1.621877479E+01  4.809514236E+01
1.622535041E+01  4.786406708E+01
1.623192603E+01  4.745829773E+01
1.623850166E+01  4.702533340E+01
1.624507728E+01  4.606762695E+01
1.625165290E+01  4.629224396E+01
1.625822853E+01  4.623093414E+01
1.626480415E+01  4.595207596E+01
1.627137977E+01  4.342004013E+01
1.627795540E+01  4.076422119E+01
1.628453102E+01  3.777369308E+01
1.629110664E+01  3.736349106E+01
1.629768227E+01  3.805362701E+01
1.630425789E+01  3.929135895E+01
1.631083351E+01  3.884034348E+01
1.631740914E+01  3.724645615E+01
1.632398476E+01  3.645059204E+01
1.633056038E+01  3.646394730E+01
1.633713601E+01  3.497253036E+01
1.634371163E+01  3.210764694E+01
1.635028725E+01  2.961778641E+01
1.635686288E+01  2.814646530E+01
1.636343850E+01  2.800905991E+01
1.637001412E+01  2.847114563E+01
1.637658975E+01  2.851655960E+01
1.638316537E+01  2.799973488E+01
1.638974099E+01  2.883907890E+01
1.639631662E+01  2.959947586E+01
1.640289224E+01  3.055528450E+01
1.640946786E+01  3.160733414E+01
1.641604349E+01  3.248408508E+01
1.642261911E+01  3.317181396E+01
1.642919473E+01  3.274030304E+01
1.643577036E+01  3.236138153E+01
1.644234598E+01  3.290708160E+01
1.644892160E+01  3.272697449E+01
1.645549723E+01  3.487571716E+01
1.646207285E+01  3.570582581E+01
1.646864847E+01  3.578758240E+01
1.647522410E+01  3.627234650E+01
1.648179972E+01  3.625873947E+01
1.648837534E+01  3.701237488E+01
1.649495097E+01  3.753032684E+01
1.650152659E+01  3.875986481E+01
1.650810221E+01  3.867951584E+01
1.651467783E+01  3.909349060E+01
1.652125346E+01  4.054185104E+01
1.652782908E+01  4.170722961E+01
1.653440470E+01  4.163653564E+01
1.654098033E+01  4.187178802E+01
1.654755595E+01  4.251506424E+01
1.655413157E+01  4.173437119E+01
1.656070720E+01  4.119966125E+01
1.656728282E+01  4.159163284E+01
1.657385844E+01  4.312077332E+01
1.658043407E+01  4.427441406E+01
1.658700969E+01  4.496860886E+01
1.659358531E+01  4.518824387E+01
1.660016094E+01  4.600708008E+01
1.660673656E+01  4.660580444E+01
1.661331218E+01  4.634722137E+01
1.661988781E+01  4.550918579E+01
1.662646343E+01  4.514882660E+01
1.663303905E+01  4.439799118E+01
1.663961468E+01  4.368782043E+01
1.664619030E+01  4.457690811E+01
1.665276592E+01  4.439579773E+01
1.665934155E+01  4.578022003E+01
1.666591717E+01  4.750210953E+01
1.667249279E+01  4.942179108E+01
1.667906842E+01  5.090885544E+01
1.668564404E+01  5.176550293E+01
1.669221966E+01  5.166551208E+01
1.669879529E+01  5.201898575E+01
1.670537091E+01  5.219207764E+01
1.671194653E+01  5.163784790E+01
1.671852216E+01  5.106327057E+01
1.672509778E+01  5.134766769E+01
1.673167340E+01  5.231665802E+01
1.673824903E+01  5.273921585E+01
1.674482465E+01  5.282621002E+01
1.675140027E+01  5.266693497E+01
1.675797590E+01  5.320712280E+01
1.676455152E+01  5.271087265E+01
1.677112714E+01  5.241982651E+01
1.677770277E+01  5.161029434E+01
1.678427839E+01  5.233057022E+01
1.679085401E+01  5.171342087E+01
1.679742964E+01  5.240040970E+01
1.680400526E+01  5.268545151E+01
1.681058088E+01  5.305680084E+01
1.681715651E+01  5.038504791E+01
1.682373213E+01  4.929810715E+01
1.683030775E+01  4.866072464E+01
1.683688338E+01  4.764330673E+01
1.684345900E+01  4.510182953E+01
1.685003462E+01  4.276188660E+01
1.685661024E+01  4.002877808E+01
1.686318587E+01  3.854950333E+01
1.686976149E+01  3.944225693E+01
1.687633711E+01  3.920268250E+01
1.688291274E+01  3.735132980E+01
1.688948836E+01  3.560845566E+01
1.689606398E+01  3.490721130E+01
1.690263961E+01  3.447713470E+01
1.690921523E+01  3.283682632E+01
1.691579085E+01  3.098242760E+01
1.692236648E+01  2.970157433E+01
1.692894210E+01  2.979118729E+01
1.693551772E+01  2.943587112E+01
1.694209335E+01  2.813956451E+01
1.694866897E+01  2.627143669E+01
1.695524459E+01  2.590377426E+01
1.696182022E+01  2.546383858E+01
1.696839584E+01  2.501609039E+01
1.697497146E+01  2.370847702E+01
1.698154709E+01  2.326120758E+01
1.698812271E+01  2.134174728E+01
1.699469833E+01  2.111169434E+01
1.700127396E+01  2.092111206E+01
1.700784958E+01  2.117621613E+01
1.701442520E+01  2.018799019E+01
1.702100083E+01  1.996224403E+01
1.702757645E+01  2.078505135E+01
1.703415207E+01  2.081259537E+01
1.704072770E+01  1.869470978E+01
1.704730332E+01  1.755583382E+01
1.705387894E+01  1.599110413E+01
1.706045457E+01  1.495454597E+01
1.706703019E+01  1.505887318E+01
1.707360581E+01  1.570195675E+01
1.708018144E+01  1.530803680E+01
1.708675706E+01  1.431746864E+01
1.709333268E+01  1.348359966E+01
1.709990831E+01  1.231271267E+01
1.710648393E+01  1.131597900E+01
1.711305955E+01  1.176726913E+01
1.711963518E+01  1.274271202E+01
1.712621080E+01  1.339949512E+01
1.713278642E+01  1.371610641E+01
1.713936205E+01  1.435170460E+01
1.714593767E+01  1.419300079E+01
1.715251329E+01  1.265503120E+01
1.715908892E+01  1.131153679E+01
1.716566454E+01  1.003753567E+01
1.717224016E+01  9.562058449E+00
1.717881578E+01  9.874399185E+00
1.718539141E+01  1.158397675E+01
1.719196703E+01  1.293644714E+01
1.719854265E+01  1.317454338E+01
1.720511828E+01  1.204588413E+01
1.721169390E+01  1.136059570E+01
1.721826952E+01  1.117196751E+01
1.722484515E+01  1.155673027E+01
1.723142077E+01  1.175128174E+01
1.723799639E+01  1.090461636E+01
1.724457202E+01  1.020674133E+01
1.725114764E+01  9.868166924E+00
1.725772326E+01  1.068143082E+01
1.726429889E+01  1.054843807E+01
1.727087451E+01  1.066161537E+01
1.727745013E+01  1.184521484E+01
1.728402576E+01  1.342494488E+01
1.729060138E+01  1.345209122E+01
1.729717700E+01  1.381777191E+01
1.730375263E+01  1.298438168E+01
1.731032825E+01  1.236450195E+01
1.731690387E+01  1.166416073E+01
1.732347950E+01  1.036134529E+01
1.733005512E+01  9.884231567E+00
1.733663074E+01  1.071225357E+01
1.734320637E+01  1.129358673E+01
1.734978199E+01  1.258860683E+01
1.735635761E+01  1.320416832E+01
1.736293324E+01  1.400883675E+01
1.736950886E+01  1.192244720E+01
1.737608448E+01  1.113777924E+01
1.738266011E+01  1.181538582E+01
1.738923573E+01  1.300107670E+01
1.739581135E+01  1.227484131E+01
1.740238698E+01  1.208142281E+01
1.740896260E+01  1.272152519E+01
1.741553822E+01  1.283228493E+01
1.742211385E+01  1.452936649E+01
1.742868947E+01  1.514328480E+01
1.743526509E+01  1.423991871E+01
1.744184072E+01  1.275527668E+01
1.744841634E+01  1.177381706E+01
1.745499196E+01  1.064124107E+01
1.746156759E+01  1.292787266E+01
1.746814321E+01  1.426215649E+01
1.747471883E+01  1.530233288E+01
1.748129446E+01  1.561583519E+01
1.748787008E+01  1.465585041E+01
1.749444570E+01  1.308602524E+01
1.750102132E+01  1.229804420E+01
1.750759695E+01  1.351904774E+01
1.751417257E+01  1.437706089E+01
1.752074819E+01  1.557530975E+01
1.752732382E+01  1.518665123E+01
1.753389944E+01  1.585865021E+01
1.754047506E+01  1.696152496E+01
1.754705069E+01  1.841627502E+01
1.755362631E+01  1.892221069E+01
1.756020193E+01  1.631389236E+01
1.756677756E+01  1.450155067E+01
1.757335318E+01  1.312734413E+01
1.757992880E+01  1.351652050E+01
1.758650443E+01  1.378630924E+01
1.759308005E+01  1.389913845E+01
1.759965567E+01  1.327103329E+01
1.760623130E+01  1.250062466E+01
1.761280692E+01  1.295605373E+01
1.761938254E+01  1.474861526E+01
1.762595817E+01  1.659017181E+01
1.763253379E+01  1.721112823E+01
1.763910941E+01  1.667146492E+01
1.764568504E+01  1.523427677E+01
1.765226066E+01  1.615532684E+01
1.765883628E+01  1.754485893E+01
1.766541191E+01  1.853801727E+01
1.767198753E+01  1.809171677E+01
1.767856315E+01  1.775809097E+01
1.768513878E+01  1.784268761E+01
1.769171440E+01  1.788934326E+01
1.769829002E+01  1.845996666E+01
1.770486565E+01  1.929958344E+01
1.771144127E+01  1.948379517E+01
1.771801689E+01  2.007112503E+01
1.772459252E+01  2.095702744E+01
1.773116814E+01  2.191490746E+01
1.773774376E+01  2.316153908E+01
1.774431939E+01  2.335121918E+01
1.775089501E+01  2.195223236E+01
1.775747063E+01  2.159498405E+01
1.776404626E+01  2.214574432E+01
1.777062188E+01  2.298447227E+01
1.777719750E+01  2.234368134E+01
1.778377313E+01  2.209945297E+01
1.779034875E+01  2.222212601E+01
1.779692437E+01  2.137784576E+01
1.780350000E+01  2.117563629E+01
1.781007562E+01  2.054728699E+01
1.781665124E+01  2.080495453E+01
1.782322687E+01  2.075249863E+01
1.782980249E+01  2.179777527E+01
1.783637811E+01  2.179931641E+01
1.784295373E+01  2.377482986E+01
1.784952936E+01  2.459307861E+01
1.785610498E+01  2.403003693E+01
1.786268060E+01  2.333236504E+01
1.786925623E+01  2.405090332E+01
1.787583185E+01  2.515004349E+01
1.788240747E+01  2.576505280E+01
1.788898310E+01  2.582756042E+01
1.789555872E+01  2.575648117E+01
1.790213434E+01  2.508984375E+01
1.790870997E+01  2.544084740E+01
1.791528559E+01  2.584064674E+01
1.792186121E+01  2.617535210E+01
1.792843684E+01  2.651123810E+01
1.793501246E+01  2.674952507E+01
1.794158808E+01  2.673576164E+01
1.794816371E+01  2.634039116E+01
1.795473933E+01  2.595240974E+01
1.796131495E+01  2.603406143E+01
1.796789058E+01  2.559837532E+01
1.797446620E+01  2.546600723E+01
1.798104182E+01  2.514464188E+01
1.798761745E+01  2.524549484E+01
1.799419307E+01  2.580753899E+01
1.800076869E+01  2.386928368E+01
1.800734432E+01  2.228957367E+01
1.801391994E+01  2.155082130E+01
1.802049556E+01  2.234835625E+01
1.802707119E+01  2.283163834E+01
1.803364681E+01  2.305787277E+01
1.804022243E+01  2.295538521E+01
1.804679806E+01  2.335194397E+01
1.805337368E+01  2.443617630E+01
1.805994930E+01  2.459643745E+01
1.806652493E+01  2.345450020E+01
1.807310055E+01  2.067120934E+01
1.807967617E+01  1.992645645E+01
1.808625180E+01  2.134740829E+01
1.809282742E+01  2.206072998E+01
1.809940304E+01  2.179025269E+01
1.810597867E+01  2.215529633E+01
1.811255429E+01  2.226051903E+01
1.811912991E+01  2.320029449E+01
1.812570554E+01  2.358752632E+01
1.813228116E+01  2.385588646E+01
1.813885678E+01  2.397856140E+01
1.814543241E+01  2.338280678E+01
1.815200803E+01  2.335374832E+01
1.815858365E+01  2.339717674E+01
1.816515927E+01  2.272002220E+01
1.817173490E+01  2.268640137E+01
1.817831052E+01  2.174585342E+01
1.818488614E+01  2.143089676E+01
1.819146177E+01  2.005967331E+01
1.819803739E+01  2.069249535E+01
1.820461301E+01  2.091456413E+01
1.821118864E+01  2.176469803E+01
1.821776426E+01  2.108786583E+01
1.822433988E+01  2.011869431E+01
1.823091551E+01  1.938040543E+01
1.823749113E+01  2.077515411E+01
1.824406675E+01  2.197562790E+01
1.825064238E+01  2.234889030E+01
1.825721800E+01  2.252523041E+01
1.826379362E+01  2.290841866E+01
1.827036925E+01  2.317082214E+01
1.827694487E+01  2.313671875E+01
1.828352049E+01  2.277154160E+01
1.829009612E+01  2.176977539E+01
1.829667174E+01  2.162526703E+01
1.830324736E+01  2.104673576E+01
1.830982299E+01  2.180251122E+01
1.831639861E+01  2.314629745E+01
1.832297423E+01  2.401931000E+01
1.832954986E+01  2.407224846E+01
1.833612548E+01  2.370922852E+01
1.834270110E+01  2.337927628E+01
1.834927673E+01  2.307143021E+01
1.835585235E+01  2.334745979E+01
1.836242797E+01  2.321342278E+01
1.836900360E+01  2.320512009E+01
1.837557922E+01  2.254433441E+01
1.838215484E+01  2.266176796E+01
1.838873047E+01  2.338748169E+01
1.839530609E+01  2.371162605E+01
1.840188171E+01  2.534548187E+01
1.840845734E+01  2.581618690E+01
1.841503296E+01  2.589301109E+01
1.842160858E+01  2.614107513E+01
1.842818421E+01  2.589645767E+01
1.843475983E+01  2.637801743E+01
1.844133545E+01  2.687637711E+01
1.844791108E+01  2.703224945E+01
1.845448670E+01  2.621145630E+01
1.846106232E+01  2.527397919E+01
1.846763795E+01  2.539917374E+01
1.847421357E+01  2.637923431E+01
1.848078919E+01  2.706306076E+01
1.848736482E+01  2.678155136E+01
1.849394044E+01  2.694478035E+01
1.850051606E+01  2.785206985E+01
1.850709168E+01  2.875399590E+01
1.851366731E+01  2.937045288E+01
1.852024293E+01  2.989261246E+01
1.852681855E+01  2.875780678E+01
1.853339418E+01  2.859386635E+01
1.853996980E+01  2.887339592E+01
1.854654542E+01  2.942694283E+01
1.855312105E+01  2.890392876E+01
1.855969667E+01  3.075601578E+01
1.856627229E+01  3.311843872E+01
1.857284792E+01  3.579681015E+01
1.857942354E+01  3.759326553E+01
1.858599916E+01  4.037870407E+01
1.859257479E+01  4.383401108E+01
1.859915041E+01  4.748956680E+01
1.860572603E+01  5.072330093E+01
1.861230166E+01  5.248480225E+01
1.861887728E+01  5.331973648E+01
1.862545290E+01  5.588156891E+01
1.863202853E+01  5.826311874E+01
1.863860415E+01  5.933249664E+01
1.864517977E+01  5.942455292E+01
1.865175540E+01  5.965923309E+01
1.865833102E+01  5.856613541E+01
1.866490664E+01  5.832426834E+01
1.867148227E+01  5.834656906E+01
1.867805789E+01  5.617346191E+01
1.868463351E+01  5.363356018E+01
1.869120914E+01  5.206534576E+01
1.869778476E+01  5.079619980E+01
1.870436038E+01  4.914829254E+01
1.871093601E+01  4.825448990E+01
1.871751163E+01  4.629128647E+01
1.872408725E+01  4.512332153E+01
1.873066288E+01  4.309047318E+01
1.873723850E+01  4.225151443E+01
1.874381412E+01  4.099636459E+01
1.875038975E+01  3.938543320E+01
1.875696537E+01  3.783120728E+01
1.876354099E+01  3.706306458E+01
1.877011662E+01  3.655741501E+01
1.877669224E+01  3.517141724E+01
1.878326786E+01  3.460390472E+01
1.878984349E+01  3.378351974E+01
1.879641911E+01  3.212990952E+01
1.880299473E+01  3.029687309E+01
1.880957036E+01  2.733446503E+01
1.881614598E+01  2.561622429E+01
1.882272160E+01  2.499203110E+01
1.882929722E+01  2.458158302E+01
1.883587285E+01  2.401222420E+01
1.884244847E+01  2.378617859E+01
1.884902409E+01  2.437826538E+01
1.885559972E+01  2.454357719E+01
1.886217534E+01  2.311589050E+01
1.886875096E+01  2.223038864E+01
1.887532659E+01  2.144286728E+01
1.888190221E+01  2.107403564E+01
1.888847783E+01  1.984432030E+01
1.889505346E+01  1.810047150E+01
1.890162908E+01  1.765102005E+01
1.890820470E+01  1.765250778E+01
1.891478033E+01  1.861043930E+01
1.892135595E+01  1.832502365E+01
1.892793157E+01  1.819336700E+01
1.893450720E+01  1.825234795E+01
1.894108282E+01  1.809697151E+01
1.894765844E+01  1.725183868E+01
1.895423407E+01  1.709584618E+01
1.896080969E+01  1.787867165E+01
1.896738531E+01  1.960738945E+01
1.897396094E+01  2.109230042E+01
1.898053656E+01  2.085848618E+01
1.898711218E+01  2.047197342E+01
1.899368781E+01  2.078827095E+01
1.900026343E+01  2.142655563E+01
1.900683905E+01  2.270238113E+01
1.901341468E+01  2.275964546E+01
1.901999030E+01  2.321041107E+01
1.902656592E+01  2.357013702E+01
1.903314155E+01  2.331404495E+01
1.903971717E+01  2.311656380E+01
1.904629279E+01  2.334663773E+01
1.905286842E+01  2.348387718E+01
1.905944404E+01  2.347266960E+01
1.906601966E+01  2.314946365E+01
1.907259529E+01  2.437358475E+01
1.907917091E+01  2.540749741E+01
1.908574653E+01  2.602550316E+01
1.909232216E+01  2.691677666E+01
1.909889778E+01  2.709716988E+01
1.910547340E+01  2.765296936E+01
1.911204903E+01  2.815166092E+01
1.911862465E+01  2.744331741E+01
1.912520027E+01  2.833316231E+01
1.913177590E+01  2.968535042E+01
1.913835152E+01  3.011429214E+01
1.914492714E+01  3.090318108E+01
1.915150276E+01  3.218342590E+01
1.915807839E+01  3.273974991E+01
1.916465401E+01  3.290286255E+01
1.917122963E+01  3.265756989E+01
1.917780526E+01  3.155712891E+01
1.918438088E+01  3.060245132E+01
1.919095650E+01  3.067932510E+01
1.919753213E+01  3.053405952E+01
1.920410775E+01  3.085625267E+01
1.921068337E+01  3.041349983E+01
1.921725900E+01  2.879942322E+01
1.922383462E+01  2.782436943E+01
1.923041024E+01  2.718790054E+01
1.923698587E+01  2.718708611E+01
1.924356149E+01  2.655693245E+01
1.925013711E+01  2.500563812E+01
1.925671274E+01  2.305819321E+01
1.926328836E+01  2.149427986E+01
1.926986398E+01  1.931480980E+01
1.927643961E+01  1.756547928E+01
1.928301523E+01  1.578413868E+01
1.928959085E+01  1.526679134E+01
1.929616648E+01  1.520877838E+01
1.930274210E+01  1.435261536E+01
1.930931772E+01  1.254035568E+01
1.931589335E+01  1.110380363E+01
1.932246897E+01  9.191718102E+00
1.932904459E+01  6.629251003E+00
1.933562022E+01  4.754012585E+00
1.934219584E+01  2.726724625E+00
1.934877146E+01  2.212834120E+00
1.935534709E+01  1.603663921E+00
1.936192271E+01  1.277606726E+00
1.936849833E+01  -2.549549639E-01
1.937507396E+01  -8.750135303E-01
1.938164958E+01  -1.345275640E+00
1.938822520E+01  -1.098167419E+00
1.939480083E+01  -8.789950013E-01
1.940137645E+01  4.029254615E-01
1.940795207E+01  1.471267462E+00
1.941452770E+01  1.038775563E+00
1.942110332E+01  1.898899525E-01
1.942767894E+01  -1.018260360E+00
1.943425457E+01  -5.607320666E-01
1.944083019E+01  2.759842435E-03
1.944740581E+01  4.456118047E-01
1.945398144E+01  4.041720822E-04
1.946055706E+01  -1.801583171E-01
1.946713268E+01  8.146332949E-02
1.947370831E+01  3.228462636E-01
1.948028393E+01  -4.820839763E-01
1.948685955E+01  2.343093455E-01
1.949343517E+01  -3.826564923E-02
