# == pyFAI calibration ==
# Distance Sample to Detector: 0.400151958433 m
# PONI: 1.472e-01, 1.496e-01 m
# Rotations: -0.001085 0.000539 -0.000000 rad
# 
# == Fit2d calibration ==
# Distance Sample-beamCenter: 400.152 mm
# Center: x=1500.210, y=1474.586 pix
# Tilt: 0.069 deg  TiltPlanRot: 26.426 deg
# 
# Detector Detector	 Spline= None	 PixelSize= 1.000e-04, 1.000e-04 m
#    Detector has a mask: False 
#    Detector has a dark current: False 
#    detector has a flat field: False 
# 
# Wavelength: 4.12969e-11 m
# Mask applied: None
# Dark current applied: None
# Flat field applied: None
# Polarization factor: None
# Normalization factor: None
#
# 2th_deg	 I
6.000256231E+00  -1.814369299E-02
6.006831854E+00  8.029392362E-02
6.013407478E+00  -7.619411498E-02
6.019983101E+00  -1.322913617E-01
6.026558724E+00  3.091487885E-01
6.033134347E+00  -2.171494812E-01
6.039709971E+00  -6.612533703E-03
6.046285594E+00  1.129655391E-01
6.052861217E+00  2.839184403E-01
6.059436840E+00  -5.931950212E-01
6.066012464E+00  1.167845950E-01
6.072588087E+00  2.236139029E-01
6.079163710E+00  -5.488144606E-02
6.085739334E+00  6.713771820E-02
6.092314957E+00  1.390051991E-01
6.098890580E+00  2.303549200E-01
6.105466203E+00  2.594118416E-01
6.112041827E+00  -4.337674081E-01
6.118617450E+00  -6.705373526E-01
6.125193073E+00  -2.774603665E-01
6.131768696E+00  1.804236412E+00
6.138344320E+00  2.021011829E+00
6.144919943E+00  2.332343578E+00
6.151495566E+00  2.383514404E+00
6.158071190E+00  2.626242876E+00
6.164646813E+00  2.591979265E+00
6.171222436E+00  3.376319408E+00
6.177798059E+00  4.166895866E+00
6.184373683E+00  4.035568714E+00
6.190949306E+00  3.621598482E+00
6.197524929E+00  2.420458317E+00
6.204100552E+00  1.635723591E+00
6.210676176E+00  -1.137354150E-01
6.217251799E+00  4.570235610E-01
6.223827422E+00  3.007520199E+00
6.230403045E+00  5.544579506E+00
6.236978669E+00  6.678176880E+00
6.243554292E+00  6.954668999E+00
6.250129915E+00  6.846335411E+00
6.256705539E+00  6.414603233E+00
6.263281162E+00  5.367191315E+00
6.269856785E+00  4.406147003E+00
6.276432408E+00  5.116276741E+00
6.283008032E+00  6.640528679E+00
6.289583655E+00  6.469207764E+00
6.296159278E+00  5.662571907E+00
6.302734901E+00  5.665723324E+00
6.309310525E+00  4.335396767E+00
6.315886148E+00  4.191085815E+00
6.322461771E+00  3.435173035E+00
6.329037394E+00  4.981801033E+00
6.335613018E+00  4.799915791E+00
6.342188641E+00  5.276285648E+00
6.348764264E+00  5.859497547E+00
6.355339888E+00  7.374343872E+00
6.361915511E+00  8.690684319E+00
6.368491134E+00  9.154762268E+00
6.375066757E+00  9.115490913E+00
6.381642381E+00  8.268625259E+00
6.388218004E+00  8.399386406E+00
6.394793627E+00  8.243022919E+00
6.401369250E+00  9.566581726E+00
6.407944874E+00  9.416470528E+00
6.414520497E+00  9.880922318E+00
6.421096120E+00  1.004754353E+01
6.427671743E+00  1.027068806E+01
6.434247367E+00  1.059409904E+01
6.440822990E+00  9.216530800E+00
6.447398613E+00  8.446129799E+00
6.453974237E+00  8.965119362E+00
6.460549860E+00  9.258532524E+00
6.467125483E+00  9.008764267E+00
6.473701106E+00  7.804806232E+00
6.480276730E+00  8.430823326E+00
6.486852353E+00  9.195249557E+00
6.493427976E+00  9.707625389E+00
6.500003599E+00  9.820237160E+00
6.506579223E+00  9.811682701E+00
6.513154846E+00  1.031287956E+01
6.519730469E+00  1.175625896E+01
6.526306092E+00  1.229713345E+01
6.532881716E+00  1.132417774E+01
6.539457339E+00  9.878359795E+00
6.546032962E+00  9.187110901E+00
6.552608586E+00  8.752456665E+00
6.559184209E+00  8.197937965E+00
6.565759832E+00  7.561101437E+00
6.572335455E+00  7.509318352E+00
6.578911079E+00  8.374469757E+00
6.585486702E+00  8.355590820E+00
6.592062325E+00  8.867031097E+00
6.598637948E+00  8.996961594E+00
6.605213572E+00  9.300846100E+00
6.611789195E+00  9.964781761E+00
6.618364818E+00  1.065878105E+01
6.624940441E+00  1.140591908E+01
6.631516065E+00  1.054937840E+01
6.638091688E+00  1.078907681E+01
6.644667311E+00  9.667256355E+00
6.651242935E+00  8.836308479E+00
6.657818558E+00  8.195242882E+00
6.664394181E+00  9.486356735E+00
6.670969804E+00  9.186104774E+00
6.677545428E+00  9.234818459E+00
6.684121051E+00  9.082603455E+00
6.690696674E+00  8.302361488E+00
6.697272297E+00  8.511421204E+00
6.703847921E+00  8.523867607E+00
6.710423544E+00  8.188190460E+00
6.716999167E+00  8.553288460E+00
6.723574790E+00  9.124088287E+00
6.730150414E+00  9.150845528E+00
6.736726037E+00  8.661619186E+00
6.743301660E+00  8.627556801E+00
6.749877284E+00  9.204104424E+00
6.756452907E+00  9.692687035E+00
6.763028530E+00  1.008318996E+01
6.769604153E+00  1.271143532E+01
6.776179777E+00  1.277701187E+01
6.782755400E+00  1.302052593E+01
6.789331023E+00  1.357980633E+01
6.795906646E+00  1.363444233E+01
6.802482270E+00  1.348415661E+01
6.809057893E+00  1.356296921E+01
6.815633516E+00  1.292528057E+01
6.822209139E+00  1.219851303E+01
6.828784763E+00  1.075010109E+01
6.835360386E+00  1.041405487E+01
6.841936009E+00  1.039915752E+01
6.848511633E+00  1.151089287E+01
6.855087256E+00  1.241974640E+01
6.861662879E+00  1.271955395E+01
6.868238502E+00  1.268702030E+01
6.874814126E+00  1.169821739E+01
6.881389749E+00  1.108478069E+01
6.887965372E+00  1.124157333E+01
6.894540995E+00  1.124045086E+01
6.901116619E+00  1.030974960E+01
6.907692242E+00  9.001766205E+00
6.914267865E+00  7.980597973E+00
6.920843488E+00  7.814376354E+00
6.927419112E+00  6.706957340E+00
6.933994735E+00  6.984980583E+00
6.940570358E+00  6.829563618E+00
6.947145982E+00  6.333672523E+00
6.953721605E+00  4.887135983E+00
6.960297228E+00  5.191052914E+00
6.966872851E+00  4.454813957E+00
6.973448475E+00  3.937612534E+00
6.980024098E+00  3.031451941E+00
6.986599721E+00  3.134198904E+00
6.993175344E+00  2.696947098E+00
6.999750968E+00  2.131980419E+00
7.006326591E+00  1.897980213E+00
7.012902214E+00  2.758816004E+00
7.019477837E+00  2.403908253E+00
7.026053461E+00  1.032214046E+00
7.032629084E+00  5.319147110E-01
7.039204707E+00  1.477974296E+00
7.045780331E+00  2.377500057E+00
7.052355954E+00  2.268862724E+00
7.058931577E+00  3.237807512E+00
7.065507200E+00  3.905733585E+00
7.072082824E+00  4.382817745E+00
7.078658447E+00  4.385441780E+00
7.085234070E+00  3.960067511E+00
7.091809693E+00  3.723469496E+00
7.098385317E+00  2.942809105E+00
7.104960940E+00  1.747058153E+00
7.111536563E+00  1.462934494E+00
7.118112186E+00  2.895173311E+00
7.124687810E+00  4.102404118E+00
7.131263433E+00  4.606622696E+00
7.137839056E+00  3.344362020E+00
7.144414680E+00  2.593448877E+00
7.150990303E+00  6.385325789E-01
7.157565926E+00  9.834873080E-01
7.164141549E+00  2.329440117E+00
7.170717173E+00  2.423405647E+00
7.177292796E+00  2.181822300E+00
7.183868419E+00  1.684695601E+00
7.190444042E+00  2.048158646E+00
7.197019666E+00  3.206212759E+00
7.203595289E+00  3.982018709E+00
7.210170912E+00  3.133798122E+00
7.216746535E+00  2.875832081E+00
7.223322159E+00  1.763228416E+00
7.229897782E+00  2.998076200E+00
7.236473405E+00  3.868901253E+00
7.243049029E+00  5.479671001E+00
7.249624652E+00  5.852335453E+00
7.256200275E+00  5.302315712E+00
7.262775898E+00  4.731472492E+00
7.269351522E+00  3.856623173E+00
7.275927145E+00  3.523505211E+00
7.282502768E+00  2.324940205E+00
7.289078391E+00  2.059327364E+00
7.295654015E+00  3.040214300E+00
7.302229638E+00  3.855570316E+00
7.308805261E+00  4.139270782E+00
7.315380884E+00  3.925585032E+00
7.321956508E+00  3.309820175E+00
7.328532131E+00  3.275465488E+00
7.335107754E+00  3.726906061E+00
7.341683378E+00  3.537270546E+00
7.348259001E+00  3.539151907E+00
7.354834624E+00  4.408393860E+00
7.361410247E+00  4.925808430E+00
7.367985871E+00  4.975219250E+00
7.374561494E+00  2.789067268E+00
7.381137117E+00  1.832685590E+00
7.387712740E+00  4.927754700E-01
7.394288364E+00  1.293714643E+00
7.400863987E+00  2.349216938E+00
7.407439610E+00  4.222684860E+00
7.414015233E+00  4.790001392E+00
7.420590857E+00  5.477815151E+00
7.427166480E+00  5.700062752E+00
7.433742103E+00  5.905822277E+00
7.440317727E+00  4.784883499E+00
7.446893350E+00  6.379076004E+00
7.453468973E+00  9.134518623E+00
7.460044596E+00  8.825940132E+00
7.466620220E+00  4.058631420E+00
7.473195843E+00  3.887591839E+00
7.479771466E+00  2.766261339E+00
7.486347089E+00  2.022109270E+00
7.492922713E+00  8.857062459E-02
7.499498336E+00  -1.389943063E-01
7.506073959E+00  7.142800689E-01
7.512649582E+00  1.673665524E+00
7.519225206E+00  1.679490328E+00
7.525800829E+00  8.263980746E-01
7.532376452E+00  1.475294530E-01
7.538952076E+00  1.135518670E+00
7.545527699E+00  1.070130825E+00
7.552103322E+00  8.893563747E-01
7.558678945E+00  -2.119567841E-01
7.565254569E+00  -5.379623771E-01
7.571830192E+00  8.552534580E-01
7.578405815E+00  3.762210369E+00
7.584981438E+00  4.271392345E+00
7.591557062E+00  3.587022305E+00
7.598132685E+00  2.515390635E+00
7.604708308E+00  2.075691462E+00
7.611283931E+00  1.318869114E+00
7.617859555E+00  6.157017946E-01
7.624435178E+00  1.526091015E-03
7.631010801E+00  2.377581596E-01
7.637586425E+00  7.371846437E-01
7.644162048E+00  1.669917703E+00
7.650737671E+00  2.239271402E+00
7.657313294E+00  3.609494925E+00
7.663888918E+00  3.159188271E+00
7.670464541E+00  3.852393866E+00
7.677040164E+00  4.200510502E+00
7.683615787E+00  5.145591736E+00
7.690191411E+00  4.497356415E+00
7.696767034E+00  4.940025330E+00
7.703342657E+00  4.777923584E+00
7.709918281E+00  6.186947346E+00
7.716493904E+00  6.978233337E+00
7.723069527E+00  7.203141689E+00
7.729645150E+00  7.652765751E+00
7.736220774E+00  9.256370544E+00
7.742796397E+00  1.115268326E+01
7.749372020E+00  1.182856464E+01
7.755947643E+00  1.033824921E+01
7.762523267E+00  9.146116257E+00
7.769098890E+00  7.865467072E+00
7.775674513E+00  6.616916656E+00
7.782250136E+00  4.276936054E+00
7.788825760E+00  3.114568710E+00
7.795401383E+00  3.591725588E+00
7.801977006E+00  5.770901680E+00
7.808552630E+00  6.534903049E+00
7.815128253E+00  6.192804337E+00
7.821703876E+00  4.541474342E+00
7.828279499E+00  3.810889244E+00
7.834855123E+00  2.894600153E+00
7.841430746E+00  4.046514034E+00
7.848006369E+00  5.050324917E+00
7.854581992E+00  6.384557247E+00
7.861157616E+00  5.809963226E+00
7.867733239E+00  5.395407677E+00
7.874308862E+00  6.101359844E+00
7.880884485E+00  7.068469048E+00
7.887460109E+00  9.055554390E+00
7.894035732E+00  9.359036446E+00
7.900611355E+00  8.901803017E+00
7.907186979E+00  9.798642159E+00
7.913762602E+00  1.113700008E+01
7.920338225E+00  1.244573307E+01
7.926913848E+00  1.429666710E+01
7.933489472E+00  1.555899334E+01
7.940065095E+00  1.712387848E+01
7.946640718E+00  1.724430275E+01
7.953216341E+00  1.910782051E+01
7.959791965E+00  2.100745392E+01
7.966367588E+00  2.440516663E+01
7.972943211E+00  2.726487541E+01
7.979518834E+00  2.967842674E+01
7.986094458E+00  3.175426292E+01
7.992670081E+00  3.347534180E+01
7.999245704E+00  3.544326019E+01
8.005821328E+00  3.860972214E+01
8.012396951E+00  4.073403549E+01
8.018972574E+00  4.388019562E+01
8.025548197E+00  4.593690872E+01
8.032123821E+00  5.101405716E+01
8.038699444E+00  5.626058578E+01
8.045275067E+00  6.202320099E+01
8.051850690E+00  6.779067993E+01
8.058426314E+00  7.334136200E+01
8.065001937E+00  8.093746185E+01
8.071577560E+00  8.989246368E+01
8.078153183E+00  1.003274612E+02
8.084728807E+00  1.119329071E+02
8.091304430E+00  1.271062469E+02
8.097880053E+00  1.436887970E+02
8.104455677E+00  1.641293030E+02
8.111031300E+00  1.873784332E+02
8.117606923E+00  2.143087463E+02
8.124182546E+00  2.462117615E+02
8.130758170E+00  2.852876587E+02
8.137333793E+00  3.298377380E+02
8.143909416E+00  3.863605042E+02
8.150485039E+00  4.546044922E+02
8.157060663E+00  5.334769897E+02
8.163636286E+00  6.207181396E+02
8.170211909E+00  7.122460327E+02
8.176787532E+00  8.017510376E+02
8.183363156E+00  8.910812988E+02
8.189938779E+00  9.651558228E+02
8.196514402E+00  1.030472656E+03
8.203090026E+00  1.082372070E+03
8.209665649E+00  1.066742310E+03
8.216241272E+00  1.006855347E+03
8.222816895E+00  9.250803833E+02
8.229392519E+00  8.222152710E+02
8.235968142E+00  7.147223511E+02
8.242543765E+00  6.200245361E+02
8.249119388E+00  5.277849731E+02
8.255695012E+00  4.543024292E+02
8.262270635E+00  3.923044739E+02
8.268846258E+00  3.392515564E+02
8.275421881E+00  2.947848206E+02
8.281997505E+00  2.605141296E+02
8.288573128E+00  2.320005188E+02
8.295148751E+00  2.083807220E+02
8.301724375E+00  1.871972046E+02
8.308299998E+00  1.688298492E+02
8.314875621E+00  1.521566010E+02
8.321451244E+00  1.372287140E+02
8.328026868E+00  1.250847702E+02
8.334602491E+00  1.147823715E+02
8.341178114E+00  1.056764908E+02
8.347753737E+00  9.653568268E+01
8.354329361E+00  8.746393585E+01
8.360904984E+00  8.086602783E+01
8.367480607E+00  7.601342773E+01
8.374056230E+00  7.190563202E+01
8.380631854E+00  6.803238678E+01
8.387207477E+00  6.536875916E+01
8.393783100E+00  6.263203430E+01
8.400358724E+00  6.186076355E+01
8.406934347E+00  5.979029083E+01
8.413509970E+00  5.894842911E+01
8.420085593E+00  5.836690521E+01
8.426661217E+00  5.870927811E+01
8.433236840E+00  5.815619659E+01
8.439812463E+00  5.855482483E+01
8.446388086E+00  5.789244461E+01
8.452963710E+00  5.669054031E+01
8.459539333E+00  5.588024521E+01
8.466114956E+00  5.394934845E+01
8.472690579E+00  5.171717453E+01
8.479266203E+00  4.839855957E+01
8.485841826E+00  4.612093735E+01
8.492417449E+00  4.406692505E+01
8.498993073E+00  4.115008545E+01
8.505568696E+00  3.794414902E+01
8.512144319E+00  3.305116272E+01
8.518719942E+00  3.061614418E+01
8.525295566E+00  2.721672440E+01
8.531871189E+00  2.484313965E+01
8.538446812E+00  2.305984306E+01
8.545022435E+00  2.226282692E+01
8.551598059E+00  2.271771812E+01
8.558173682E+00  2.253633499E+01
8.564749305E+00  2.084123421E+01
8.571324928E+00  2.145223999E+01
8.577900552E+00  2.111886787E+01
8.584476175E+00  2.144609642E+01
8.591051798E+00  2.170150375E+01
8.597627422E+00  2.205941010E+01
8.604203045E+00  2.242020416E+01
8.610778668E+00  2.307880974E+01
8.617354291E+00  2.299909210E+01
8.623929915E+00  2.332656097E+01
8.630505538E+00  2.361981010E+01
8.637081161E+00  2.369085121E+01
8.643656784E+00  2.273011589E+01
8.650232408E+00  2.073418427E+01
8.656808031E+00  1.976311493E+01
8.663383654E+00  2.005470276E+01
8.669959277E+00  2.048101997E+01
8.676534901E+00  2.194734001E+01
8.683110524E+00  2.287700653E+01
8.689686147E+00  2.468945122E+01
8.696261771E+00  2.562784386E+01
8.702837394E+00  2.689433861E+01
8.709413017E+00  2.668083000E+01
8.715988640E+00  2.600002098E+01
8.722564264E+00  2.366441917E+01
8.729139887E+00  2.279414749E+01
8.735715510E+00  2.159868622E+01
8.742291133E+00  2.131730461E+01
8.748866757E+00  2.092999458E+01
8.755442380E+00  2.088549805E+01
8.762018003E+00  1.856663895E+01
8.768593626E+00  1.749003601E+01
8.775169250E+00  1.649506187E+01
8.781744873E+00  1.642352676E+01
8.788320496E+00  1.469000435E+01
8.794896120E+00  1.067781258E+01
8.801471743E+00  8.502696991E+00
8.808047366E+00  7.539679050E+00
8.814622989E+00  6.689661980E+00
8.821198613E+00  5.030795097E+00
8.827774236E+00  3.650506735E+00
8.834349859E+00  2.788569689E+00
8.840925482E+00  2.530948877E+00
8.847501106E+00  2.743395329E+00
8.854076729E+00  3.911289930E+00
8.860652352E+00  4.975091934E+00
8.867227975E+00  6.274675846E+00
8.873803599E+00  9.465345383E+00
8.880379222E+00  1.136988544E+01
8.886954845E+00  1.257573128E+01
8.893530469E+00  1.314101791E+01
8.900106092E+00  1.434214687E+01
8.906681715E+00  1.659809494E+01
8.913257338E+00  1.761738777E+01
8.919832962E+00  1.818619347E+01
8.926408585E+00  1.773618507E+01
8.932984208E+00  1.799688530E+01
8.939559831E+00  1.856793594E+01
8.946135455E+00  1.927114677E+01
8.952711078E+00  1.926572800E+01
8.959286701E+00  1.965327644E+01
8.965862324E+00  2.002073860E+01
8.972437948E+00  1.897458839E+01
8.979013571E+00  1.983566093E+01
8.985589194E+00  2.048094177E+01
8.992164818E+00  2.239678764E+01
8.998740441E+00  2.265940666E+01
9.005316064E+00  2.234793282E+01
9.011891687E+00  2.253905487E+01
9.018467311E+00  2.401601028E+01
9.025042934E+00  2.683010483E+01
9.031618557E+00  3.011759758E+01
9.038194180E+00  3.224327087E+01
9.044769804E+00  3.339124298E+01
9.051345427E+00  3.338625336E+01
9.057921050E+00  3.388312149E+01
9.064496673E+00  3.421538162E+01
9.071072297E+00  3.503981018E+01
9.077647920E+00  3.588378143E+01
9.084223543E+00  3.733327484E+01
9.090799167E+00  3.737026215E+01
9.097374790E+00  3.642104721E+01
9.103950413E+00  3.761214066E+01
9.110526036E+00  3.923606110E+01
9.117101660E+00  4.239977646E+01
9.123677283E+00  4.438800049E+01
9.130252906E+00  4.621884155E+01
9.136828529E+00  4.898071671E+01
9.143404153E+00  5.056331253E+01
9.149979776E+00  5.223767471E+01
9.156555399E+00  5.517132187E+01
9.163131022E+00  5.951663971E+01
9.169706646E+00  6.531761169E+01
9.176282269E+00  6.993073273E+01
9.182857892E+00  7.285506439E+01
9.189433516E+00  7.499005127E+01
9.196009139E+00  7.634014893E+01
9.202584762E+00  7.849375916E+01
9.209160385E+00  7.980493164E+01
9.215736009E+00  7.886403656E+01
9.222311632E+00  7.686984253E+01
9.228887255E+00  7.414124298E+01
9.235462878E+00  7.123001862E+01
9.242038502E+00  6.761473083E+01
9.248614125E+00  6.516845703E+01
9.255189748E+00  6.240441513E+01
9.261765372E+00  5.843689728E+01
9.268340995E+00  5.649933624E+01
9.274916618E+00  5.541304779E+01
9.281492241E+00  5.500228119E+01
9.288067865E+00  5.520847321E+01
9.294643488E+00  5.447891617E+01
9.301219111E+00  5.254898834E+01
9.307794734E+00  5.074000549E+01
9.314370358E+00  4.911009979E+01
9.320945981E+00  4.945812225E+01
9.327521604E+00  4.975138474E+01
9.334097227E+00  5.078433609E+01
9.340672851E+00  5.267272568E+01
9.347248474E+00  5.646931076E+01
9.353824097E+00  6.204471588E+01
9.360399721E+00  6.774369049E+01
9.366975344E+00  7.567610931E+01
9.373550967E+00  8.357198334E+01
9.380126590E+00  9.302068329E+01
9.386702214E+00  1.041345291E+02
9.393277837E+00  1.198261414E+02
9.399853460E+00  1.373928986E+02
9.406429083E+00  1.599510345E+02
9.413004707E+00  1.868809204E+02
9.419580330E+00  2.203964691E+02
9.426155953E+00  2.644952393E+02
9.432731576E+00  3.211084290E+02
9.439307200E+00  3.867208862E+02
9.445882823E+00  4.600699463E+02
9.452458446E+00  5.361341553E+02
9.459034070E+00  5.992801514E+02
9.465609693E+00  6.395852661E+02
9.472185316E+00  6.573872070E+02
9.478760939E+00  6.596676025E+02
9.485336563E+00  6.526944580E+02
9.491912186E+00  6.141983032E+02
9.498487809E+00  5.634481201E+02
9.505063432E+00  5.002492065E+02
9.511639056E+00  4.463251343E+02
9.518214679E+00  3.963560791E+02
9.524790302E+00  3.499383240E+02
9.531365925E+00  3.086963501E+02
9.537941549E+00  2.733161926E+02
9.544517172E+00  2.404795380E+02
9.551092795E+00  2.181409607E+02
9.557668419E+00  1.972008820E+02
9.564244042E+00  1.822095947E+02
9.570819665E+00  1.669107666E+02
9.577395288E+00  1.546706085E+02
9.583970912E+00  1.450745697E+02
9.590546535E+00  1.367862549E+02
9.597122158E+00  1.300737000E+02
9.603697781E+00  1.251625214E+02
9.610273405E+00  1.212231216E+02
9.616849028E+00  1.193717041E+02
9.623424651E+00  1.163944092E+02
9.630000274E+00  1.158102646E+02
9.636575898E+00  1.163932114E+02
9.643151521E+00  1.180782852E+02
9.649727144E+00  1.198566971E+02
9.656302768E+00  1.229813614E+02
9.662878391E+00  1.270006256E+02
9.669454014E+00  1.290809631E+02
9.676029637E+00  1.314342957E+02
9.682605261E+00  1.338945770E+02
9.689180884E+00  1.345882721E+02
9.695756507E+00  1.335861511E+02
9.702332130E+00  1.314082489E+02
9.708907754E+00  1.295037384E+02
9.715483377E+00  1.266738892E+02
9.722059000E+00  1.234274673E+02
9.728634623E+00  1.180325317E+02
9.735210247E+00  1.110515518E+02
9.741785870E+00  1.025060120E+02
9.748361493E+00  9.630847168E+01
9.754937117E+00  9.033490753E+01
9.761512740E+00  8.642562866E+01
9.768088363E+00  8.260112762E+01
9.774663986E+00  7.679204559E+01
9.781239610E+00  7.084748840E+01
9.787815233E+00  6.377477264E+01
9.794390856E+00  5.819447708E+01
9.800966479E+00  5.346108246E+01
9.807542103E+00  4.950132751E+01
9.814117726E+00  4.490211487E+01
9.820693349E+00  4.191733551E+01
9.827268972E+00  3.904794693E+01
9.833844596E+00  3.649706650E+01
9.840420219E+00  3.399660492E+01
9.846995842E+00  3.111979675E+01
9.853571466E+00  2.830607796E+01
9.860147089E+00  2.747438049E+01
9.866722712E+00  2.715300941E+01
9.873298335E+00  2.721157837E+01
9.879873959E+00  2.678923416E+01
9.886449582E+00  2.577512169E+01
9.893025205E+00  2.582205772E+01
9.899600828E+00  2.574106026E+01
9.906176452E+00  2.653260231E+01
9.912752075E+00  2.793934059E+01
9.919327698E+00  2.987971687E+01
9.925903321E+00  3.256415939E+01
9.932478945E+00  3.562985992E+01
9.939054568E+00  3.883509064E+01
9.945630191E+00  4.293667221E+01
9.952205815E+00  4.636914825E+01
9.958781438E+00  5.113542938E+01
9.965357061E+00  5.495228195E+01
9.971932684E+00  5.970347214E+01
9.978508308E+00  6.485576630E+01
9.985083931E+00  6.937251282E+01
9.991659554E+00  7.382302094E+01
9.998235177E+00  7.912767029E+01
1.000481080E+01  8.519023895E+01
1.001138642E+01  9.154241943E+01
1.001796205E+01  9.916758728E+01
1.002453767E+01  1.072644272E+02
1.003111329E+01  1.165233383E+02
1.003768892E+01  1.258480911E+02
1.004426454E+01  1.346771240E+02
1.005084016E+01  1.411588135E+02
1.005741579E+01  1.475465698E+02
1.006399141E+01  1.537416992E+02
1.007056703E+01  1.593740540E+02
1.007714266E+01  1.626833344E+02
1.008371828E+01  1.655737762E+02
1.009029390E+01  1.692772980E+02
1.009686953E+01  1.744774323E+02
1.010344515E+01  1.786663361E+02
1.011002077E+01  1.805817566E+02
1.011659640E+01  1.889843903E+02
1.012317202E+01  1.881862030E+02
1.012974764E+01  1.811783752E+02
1.013632327E+01  1.734130249E+02
1.014289889E+01  1.667099152E+02
1.014947451E+01  1.569752655E+02
1.015605014E+01  1.475542450E+02
1.016262576E+01  1.370269165E+02
1.016920138E+01  1.272633438E+02
1.017577701E+01  1.189246292E+02
1.018235263E+01  1.109926758E+02
1.018892825E+01  1.028395157E+02
1.019550388E+01  9.441189575E+01
1.020207950E+01  8.634455872E+01
1.020865512E+01  7.991919708E+01
1.021523075E+01  7.379546356E+01
1.022180637E+01  6.761833954E+01
1.022838199E+01  6.146886063E+01
1.023495762E+01  5.635041428E+01
1.024153324E+01  5.325076675E+01
1.024810886E+01  5.044381714E+01
1.025468448E+01  4.750424957E+01
1.026126011E+01  4.510147095E+01
1.026783573E+01  4.333702087E+01
1.027441135E+01  4.226604462E+01
1.028098698E+01  4.124448013E+01
1.028756260E+01  4.131135941E+01
1.029413822E+01  3.993882751E+01
1.030071385E+01  3.903847885E+01
1.030728947E+01  3.861125946E+01
1.031386509E+01  3.800968552E+01
1.032044072E+01  3.704231644E+01
1.032701634E+01  3.611684418E+01
1.033359196E+01  3.663996887E+01
1.034016759E+01  3.755306625E+01
1.034674321E+01  3.856753159E+01
1.035331883E+01  3.992014313E+01
1.035989446E+01  4.180374146E+01
1.036647008E+01  4.267873001E+01
1.037304570E+01  4.181069946E+01
1.037962133E+01  3.977333832E+01
1.038619695E+01  3.816913986E+01
1.039277257E+01  3.713527679E+01
1.039934820E+01  3.688849640E+01
1.040592382E+01  3.613675690E+01
1.041249944E+01  3.451038742E+01
1.041907507E+01  3.388970566E+01
1.042565069E+01  3.373169708E+01
1.043222631E+01  3.299431610E+01
1.043880194E+01  3.145778847E+01
1.044537756E+01  2.987743187E+01
1.045195318E+01  2.861061287E+01
1.045852881E+01  2.844292831E+01
1.046510443E+01  2.801152992E+01
1.047168005E+01  2.823335457E+01
1.047825568E+01  2.766597176E+01
1.048483130E+01  2.670092773E+01
1.049140692E+01  2.553592491E+01
1.049798255E+01  2.377247620E+01
1.050455817E+01  2.153650856E+01
1.051113379E+01  1.901498413E+01
1.051770942E+01  1.796908569E+01
1.052428504E+01  1.772200966E+01
1.053086066E+01  1.580447388E+01
1.053743629E+01  1.315051651E+01
1.054401191E+01  1.247006035E+01
1.055058753E+01  1.154528999E+01
1.055716316E+01  1.047822189E+01
1.056373878E+01  9.115988731E+00
1.057031440E+01  1.009771729E+01
1.057689002E+01  1.135648346E+01
1.058346565E+01  1.269353008E+01
1.059004127E+01  1.440277481E+01
1.059661689E+01  1.666290474E+01
1.060319252E+01  1.719021034E+01
1.060976814E+01  1.681718636E+01
1.061634376E+01  1.535094833E+01
1.062291939E+01  1.333933163E+01
1.062949501E+01  1.162558174E+01
1.063607063E+01  1.105246162E+01
1.064264626E+01  1.052962780E+01
1.064922188E+01  1.082464695E+01
1.065579750E+01  1.103956223E+01
1.066237313E+01  1.253325176E+01
1.066894875E+01  1.279301167E+01
1.067552437E+01  1.310057163E+01
1.068210000E+01  1.036217499E+01
1.068867562E+01  1.011101723E+01
1.069525124E+01  1.098429489E+01
1.070182687E+01  1.319635391E+01
1.070840249E+01  1.330773163E+01
1.071497811E+01  1.313433266E+01
1.072155374E+01  1.233288097E+01
1.072812936E+01  1.270853710E+01
1.073470498E+01  1.243706512E+01
1.074128061E+01  9.910531998E+00
1.074785623E+01  8.176279068E+00
1.075443185E+01  6.533108711E+00
1.076100748E+01  6.745151520E+00
1.076758310E+01  7.258664131E+00
1.077415872E+01  7.843631268E+00
1.078073435E+01  9.088392258E+00
1.078730997E+01  7.552474499E+00
1.079388559E+01  4.522453308E+00
1.080046122E+01  2.621814489E+00
1.080703684E+01  2.089273930E+00
1.081361246E+01  2.451141834E+00
1.082018809E+01  3.569174051E+00
1.082676371E+01  3.892037392E+00
1.083333933E+01  2.895738840E+00
1.083991496E+01  3.505989075E+00
1.084649058E+01  4.744199276E+00
1.085306620E+01  5.879824162E+00
1.085964183E+01  6.126652718E+00
1.086621745E+01  7.143295288E+00
1.087279307E+01  7.544414520E+00
1.087936870E+01  6.868011951E+00
1.088594432E+01  5.791736126E+00
1.089251994E+01  4.982491493E+00
1.089909556E+01  4.502691269E+00
1.090567119E+01  3.634961128E+00
1.091224681E+01  4.147768497E+00
1.091882243E+01  6.606455803E+00
1.092539806E+01  7.416697502E+00
1.093197368E+01  7.823037624E+00
1.093854930E+01  7.604689598E+00
1.094512493E+01  6.596532822E+00
1.095170055E+01  5.356105328E+00
1.095827617E+01  6.320343018E+00
1.096485180E+01  7.251868725E+00
1.097142742E+01  8.404518127E+00
1.097800304E+01  8.322173119E+00
1.098457867E+01  6.848033428E+00
1.099115429E+01  5.532824039E+00
1.099772991E+01  3.744169235E+00
1.100430554E+01  2.545011282E+00
1.101088116E+01  2.171637058E+00
1.101745678E+01  2.292468309E+00
1.102403241E+01  1.733646989E+00
1.103060803E+01  1.158723474E+00
1.103718365E+01  -1.139608249E-01
1.104375928E+01  -8.148865700E-01
1.105033490E+01  2.497879118E-01
1.105691052E+01  1.353500247E+00
1.106348615E+01  1.261393309E+00
1.107006177E+01  2.305510283E+00
1.107663739E+01  1.501493931E+00
1.108321302E+01  9.045436382E-01
1.108978864E+01  1.492227554E+00
1.109636426E+01  3.909111023E+00
1.110293989E+01  6.726522446E+00
1.110951551E+01  6.815111637E+00
1.111609113E+01  6.039185524E+00
1.112266676E+01  5.116569519E+00
1.112924238E+01  4.401813030E+00
1.113581800E+01  3.598589659E+00
1.114239363E+01  3.508232355E+00
1.114896925E+01  3.198678732E+00
1.115554487E+01  4.556715965E+00
1.116212050E+01  5.824602127E+00
1.116869612E+01  7.331022739E+00
1.117527174E+01  6.761598587E+00
1.118184737E+01  5.210641384E+00
1.118842299E+01  3.989261866E+00
1.119499861E+01  3.824096441E+00
1.120157424E+01  4.285043240E+00
1.120814986E+01  5.012313366E+00
1.121472548E+01  6.427364826E+00
1.122130111E+01  9.154780388E+00
1.122787673E+01  9.958788872E+00
1.123445235E+01  1.047764015E+01
1.124102797E+01  9.099583626E+00
1.124760360E+01  7.683565617E+00
1.125417922E+01  7.114900112E+00
1.126075484E+01  5.717372894E+00
1.126733047E+01  4.796699047E+00
1.127390609E+01  4.911033630E+00
1.128048171E+01  6.292355061E+00
1.128705734E+01  6.763457775E+00
1.129363296E+01  7.917642117E+00
1.130020858E+01  8.088436127E+00
1.130678421E+01  8.326164246E+00
1.131335983E+01  7.750968456E+00
1.131993545E+01  7.879961014E+00
1.132651108E+01  7.581324100E+00
1.133308670E+01  7.991791725E+00
1.133966232E+01  8.971726418E+00
1.134623795E+01  9.699846268E+00
1.135281357E+01  9.008677483E+00
1.135938919E+01  7.879177094E+00
1.136596482E+01  7.250798225E+00
1.137254044E+01  7.279298306E+00
1.137911606E+01  7.028148651E+00
1.138569169E+01  8.062770844E+00
1.139226731E+01  9.918799400E+00
1.139884293E+01  1.055862617E+01
1.140541856E+01  1.070391750E+01
1.141199418E+01  1.075651646E+01
1.141856980E+01  1.186826229E+01
1.142514543E+01  1.233699417E+01
1.143172105E+01  1.295419884E+01
1.143829667E+01  1.178480530E+01
1.144487230E+01  1.175946236E+01
1.145144792E+01  1.097288227E+01
1.145802354E+01  1.052368450E+01
1.146459917E+01  1.076879215E+01
1.147117479E+01  1.150360394E+01
1.147775041E+01  9.704671860E+00
1.148432604E+01  1.008048630E+01
1.149090166E+01  1.168084526E+01
1.149747728E+01  1.355554962E+01
1.150405291E+01  1.425928497E+01
1.151062853E+01  1.252886677E+01
1.151720415E+01  1.069535255E+01
1.152377978E+01  1.214107132E+01
1.153035540E+01  1.372052193E+01
1.153693102E+01  1.477697468E+01
1.154350665E+01  1.512635803E+01
1.155008227E+01  1.511732006E+01
1.155665789E+01  1.518981647E+01
1.156323351E+01  1.636095428E+01
1.156980914E+01  1.865614510E+01
1.157638476E+01  2.069406319E+01
1.158296038E+01  2.170031548E+01
1.158953601E+01  2.421740913E+01
1.159611163E+01  2.681812477E+01
1.160268725E+01  2.919340706E+01
1.160926288E+01  3.041604042E+01
1.161583850E+01  2.964230347E+01
1.162241412E+01  2.893765831E+01
1.162898975E+01  2.991785812E+01
1.163556537E+01  2.942033768E+01
1.164214099E+01  2.758624268E+01
1.164871662E+01  2.486482620E+01
1.165529224E+01  2.358326912E+01
1.166186786E+01  2.349794960E+01
1.166844349E+01  2.241651726E+01
1.167501911E+01  2.181361580E+01
1.168159473E+01  2.007989693E+01
1.168817036E+01  1.982672501E+01
1.169474598E+01  2.085441589E+01
1.170132160E+01  2.181241608E+01
1.170789723E+01  2.046881866E+01
1.171447285E+01  1.855900002E+01
1.172104847E+01  1.718845558E+01
1.172762410E+01  1.643581963E+01
1.173419972E+01  1.522103691E+01
1.174077534E+01  1.418426514E+01
1.174735097E+01  1.377669621E+01
1.175392659E+01  1.437676430E+01
1.176050221E+01  1.459141922E+01
1.176707784E+01  1.426882172E+01
1.177365346E+01  1.361699295E+01
1.178022908E+01  1.376826954E+01
1.178680471E+01  1.345996666E+01
1.179338033E+01  1.375166512E+01
1.179995595E+01  1.273077679E+01
1.180653158E+01  1.084408665E+01
1.181310720E+01  9.757616997E+00
1.181968282E+01  8.849304199E+00
1.182625845E+01  8.791029930E+00
1.183283407E+01  8.834264755E+00
1.183940969E+01  9.154305458E+00
1.184598532E+01  8.953306198E+00
1.185256094E+01  9.520335197E+00
1.185913656E+01  1.006926250E+01
1.186571219E+01  1.026366997E+01
1.187228781E+01  8.582565308E+00
1.187886343E+01  7.449782848E+00
1.188543906E+01  5.704684734E+00
1.189201468E+01  7.168567657E+00
1.189859030E+01  9.221321106E+00
1.190516592E+01  1.136979198E+01
1.191174155E+01  1.214865589E+01
1.191831717E+01  1.128399849E+01
1.192489279E+01  1.060102844E+01
1.193146842E+01  9.648096085E+00
1.193804404E+01  9.020433426E+00
1.194461966E+01  9.105750084E+00
1.195119529E+01  1.135035133E+01
1.195777091E+01  1.044077969E+01
1.196434653E+01  9.994241714E+00
1.197092216E+01  9.277359962E+00
1.197749778E+01  7.920526505E+00
1.198407340E+01  7.966246128E+00
1.199064903E+01  1.065380096E+01
1.199722465E+01  1.249346924E+01
1.200380027E+01  1.408879375E+01
1.201037590E+01  1.569126701E+01
1.201695152E+01  1.714661980E+01
1.202352714E+01  1.826201057E+01
1.203010277E+01  1.736901283E+01
1.203667839E+01  1.679284859E+01
1.204325401E+01  1.597447205E+01
1.204982964E+01  1.619516182E+01
1.205640526E+01  1.581822872E+01
1.206298088E+01  1.486568069E+01
1.206955651E+01  1.375698090E+01
1.207613213E+01  1.284323692E+01
1.208270775E+01  1.513424397E+01
1.208928338E+01  1.514859009E+01
1.209585900E+01  1.654987907E+01
1.210243462E+01  1.578931236E+01
1.210901025E+01  1.503537941E+01
1.211558587E+01  1.372609615E+01
1.212216149E+01  1.362076950E+01
1.212873712E+01  1.439960289E+01
1.213531274E+01  1.526965332E+01
1.214188836E+01  1.650878143E+01
1.214846399E+01  1.645196915E+01
1.215503961E+01  1.451037884E+01
1.216161523E+01  1.150678349E+01
1.216819086E+01  1.117948914E+01
1.217476648E+01  1.061347675E+01
1.218134210E+01  1.062517357E+01
1.218791773E+01  1.103442192E+01
1.219449335E+01  1.123089027E+01
1.220106897E+01  1.143236732E+01
1.220764460E+01  1.215742683E+01
1.221422022E+01  1.101448154E+01
1.222079584E+01  1.006116390E+01
1.222737146E+01  1.041760540E+01
1.223394709E+01  1.091633987E+01
1.224052271E+01  1.123413658E+01
1.224709833E+01  1.122013092E+01
1.225367396E+01  1.125226307E+01
1.226024958E+01  1.056443310E+01
1.226682520E+01  1.113321495E+01
1.227340083E+01  1.293322945E+01
1.227997645E+01  1.349134350E+01
1.228655207E+01  1.430561447E+01
1.229312770E+01  1.348494244E+01
1.229970332E+01  1.300883007E+01
1.230627894E+01  1.176742649E+01
1.231285457E+01  1.279883099E+01
1.231943019E+01  1.315627766E+01
1.232600581E+01  1.523773098E+01
1.233258144E+01  1.639818382E+01
1.233915706E+01  1.763813782E+01
1.234573268E+01  1.790438843E+01
1.235230831E+01  1.755632591E+01
1.235888393E+01  1.812521362E+01
1.236545955E+01  1.723460960E+01
1.237203518E+01  1.679517174E+01
1.237861080E+01  1.714676285E+01
1.238518642E+01  1.878403473E+01
1.239176205E+01  1.902292252E+01
1.239833767E+01  1.962956238E+01
1.240491329E+01  2.043112373E+01
1.241148892E+01  2.200672913E+01
1.241806454E+01  2.259663773E+01
1.242464016E+01  2.455292511E+01
1.243121579E+01  2.647278023E+01
1.243779141E+01  2.752370834E+01
1.244436703E+01  2.683903885E+01
1.245094266E+01  2.688314819E+01
1.245751828E+01  2.720635605E+01
1.246409390E+01  2.849325752E+01
1.247066953E+01  3.056907654E+01
1.247724515E+01  3.367211533E+01
1.248382077E+01  3.549430084E+01
1.249039640E+01  3.641553497E+01
1.249697202E+01  3.761797333E+01
1.250354764E+01  3.993611526E+01
1.251012327E+01  4.206383133E+01
1.251669889E+01  4.405583191E+01
1.252327451E+01  4.477005386E+01
1.252985014E+01  4.453269196E+01
1.253642576E+01  4.477442551E+01
1.254300138E+01  4.457096863E+01
1.254957700E+01  4.488766479E+01
1.255615263E+01  4.555461884E+01
1.256272825E+01  4.679450607E+01
1.256930387E+01  4.737638092E+01
1.257587950E+01  4.762106705E+01
1.258245512E+01  4.992408752E+01
1.258903074E+01  5.088506317E+01
1.259560637E+01  5.203379822E+01
1.260218199E+01  5.229266357E+01
1.260875761E+01  5.129742050E+01
1.261533324E+01  5.040110397E+01
1.262190886E+01  5.080928802E+01
1.262848448E+01  5.142384338E+01
1.263506011E+01  5.211440659E+01
1.264163573E+01  5.234094238E+01
1.264821135E+01  5.342279816E+01
1.265478698E+01  5.312218475E+01
1.266136260E+01  5.396694565E+01
1.266793822E+01  5.395365906E+01
1.267451385E+01  5.434259415E+01
1.268108947E+01  5.540962982E+01
1.268766509E+01  5.686277390E+01
1.269424072E+01  5.750721359E+01
1.270081634E+01  5.888201141E+01
1.270739196E+01  5.989781952E+01
1.271396759E+01  6.284320831E+01
1.272054321E+01  6.482560730E+01
1.272711883E+01  6.758574677E+01
1.273369446E+01  7.040975952E+01
1.274027008E+01  7.290067291E+01
1.274684570E+01  7.495840454E+01
1.275342133E+01  7.653802490E+01
1.275999695E+01  7.950917816E+01
1.276657257E+01  8.244266510E+01
1.277314820E+01  8.453282166E+01
1.277972382E+01  8.458728790E+01
1.278629944E+01  8.456600952E+01
1.279287507E+01  8.427516937E+01
1.279945069E+01  8.502676392E+01
1.280602631E+01  8.612404633E+01
1.281260194E+01  8.626670837E+01
1.281917756E+01  8.473798370E+01
1.282575318E+01  8.444802856E+01
1.283232881E+01  8.509753418E+01
1.283890443E+01  8.586473083E+01
1.284548005E+01  8.541663361E+01
1.285205568E+01  8.407013702E+01
1.285863130E+01  8.456109619E+01
1.286520692E+01  8.490416718E+01
1.287178255E+01  8.423022461E+01
1.287835817E+01  8.481516266E+01
1.288493379E+01  8.293193054E+01
1.289150941E+01  8.072019958E+01
1.289808504E+01  7.716043854E+01
1.290466066E+01  7.457933044E+01
1.291123628E+01  7.170099640E+01
1.291781191E+01  6.832623291E+01
1.292438753E+01  6.381882858E+01
1.293096315E+01  6.013776398E+01
1.293753878E+01  5.802475357E+01
1.294411440E+01  5.877668381E+01
1.295069002E+01  5.830175781E+01
1.295726565E+01  5.658876038E+01
1.296384127E+01  5.285937881E+01
1.297041689E+01  4.982845688E+01
1.297699252E+01  4.651455688E+01
1.298356814E+01  4.370381927E+01
1.299014376E+01  3.882886124E+01
1.299671939E+01  3.545560455E+01
1.300329501E+01  3.297223663E+01
1.300987063E+01  3.282163239E+01
1.301644626E+01  3.173962402E+01
1.302302188E+01  3.171743011E+01
1.302959750E+01  3.052018356E+01
1.303617313E+01  2.934465790E+01
1.304274875E+01  2.836907578E+01
1.304932437E+01  2.767253494E+01
1.305590000E+01  2.650893784E+01
1.306247562E+01  2.380259323E+01
1.306905124E+01  2.147195816E+01
1.307562687E+01  2.132463837E+01
1.308220249E+01  2.098123741E+01
1.308877811E+01  2.093149185E+01
1.309535374E+01  2.102158737E+01
1.310192936E+01  2.213823509E+01
1.310850498E+01  2.075945473E+01
1.311508061E+01  2.002928162E+01
1.312165623E+01  1.989155579E+01
1.312823185E+01  2.028083611E+01
1.313480748E+01  2.211997032E+01
1.314138310E+01  2.407398796E+01
1.314795872E+01  2.374151230E+01
1.315453435E+01  2.227536964E+01
1.316110997E+01  2.172731018E+01
1.316768559E+01  2.146549034E+01
1.317426122E+01  2.155240440E+01
1.318083684E+01  2.348267174E+01
1.318741246E+01  2.464007759E+01
1.319398809E+01  2.684639168E+01
1.320056371E+01  2.833989334E+01
1.320713933E+01  3.005807495E+01
1.321371495E+01  3.209321594E+01
1.322029058E+01  3.659766006E+01
1.322686620E+01  3.868614960E+01
1.323344182E+01  4.064090347E+01
1.324001745E+01  4.325537872E+01
1.324659307E+01  4.699930191E+01
1.325316869E+01  4.959776688E+01
1.325974432E+01  5.388817596E+01
1.326631994E+01  5.806193161E+01
1.327289556E+01  6.413954926E+01
1.327947119E+01  7.025822449E+01
1.328604681E+01  7.695165253E+01
1.329262243E+01  8.294883728E+01
1.329919806E+01  8.922390747E+01
1.330577368E+01  9.719726562E+01
1.331234930E+01  1.050319977E+02
1.331892493E+01  1.150235214E+02
1.332550055E+01  1.279569855E+02
1.333207617E+01  1.432000732E+02
1.333865180E+01  1.578323669E+02
1.334522742E+01  1.756009369E+02
1.335180304E+01  1.951420135E+02
1.335837867E+01  2.161284637E+02
1.336495429E+01  2.389118195E+02
1.337152991E+01  2.634276428E+02
1.337810554E+01  2.914552307E+02
1.338468116E+01  3.195849304E+02
1.339125678E+01  3.473171692E+02
1.339783241E+01  3.698888245E+02
1.340440803E+01  3.886504211E+02
1.341098365E+01  4.033822937E+02
1.341755928E+01  4.119100647E+02
1.342413490E+01  4.121482849E+02
1.343071052E+01  3.989319153E+02
1.343728615E+01  3.795749207E+02
1.344386177E+01  3.520836487E+02
1.345043739E+01  3.211714478E+02
1.345701302E+01  2.891410522E+02
1.346358864E+01  2.568835754E+02
1.347016426E+01  2.278858185E+02
1.347673989E+01  2.032283173E+02
1.348331551E+01  1.815316925E+02
1.348989113E+01  1.603017731E+02
1.349646676E+01  1.433779144E+02
1.350304238E+01  1.289226837E+02
1.350961800E+01  1.170899048E+02
1.351619363E+01  1.053609848E+02
1.352276925E+01  9.424373627E+01
1.352934487E+01  8.435142517E+01
1.353592050E+01  7.737544250E+01
1.354249612E+01  6.914487457E+01
1.354907174E+01  6.183501053E+01
1.355564736E+01  5.512453461E+01
1.356222299E+01  5.007252884E+01
1.356879861E+01  4.600318909E+01
1.357537423E+01  4.315039825E+01
1.358194986E+01  3.982419586E+01
1.358852548E+01  3.738688278E+01
1.359510110E+01  3.493511963E+01
1.360167673E+01  3.300259018E+01
1.360825235E+01  3.072697830E+01
1.361482797E+01  2.933923149E+01
1.362140360E+01  2.685496902E+01
1.362797922E+01  2.534449005E+01
1.363455484E+01  2.352360725E+01
1.364113047E+01  2.177659225E+01
1.364770609E+01  2.071183586E+01
1.365428171E+01  2.012669182E+01
1.366085734E+01  1.935269928E+01
1.366743296E+01  1.918721581E+01
1.367400858E+01  1.872349548E+01
1.368058421E+01  1.919688797E+01
1.368715983E+01  1.851949692E+01
1.369373545E+01  1.748721504E+01
1.370031108E+01  1.626800919E+01
1.370688670E+01  1.574957085E+01
1.371346232E+01  1.518238354E+01
1.372003795E+01  1.477542973E+01
1.372661357E+01  1.591981888E+01
1.373318919E+01  1.857257843E+01
1.373976482E+01  2.040021133E+01
1.374634044E+01  1.997595596E+01
1.375291606E+01  1.755908394E+01
1.375949169E+01  1.587713528E+01
1.376606731E+01  1.710197830E+01
1.377264293E+01  1.761398125E+01
1.377921856E+01  1.882964325E+01
1.378579418E+01  1.904778862E+01
1.379236980E+01  2.144565773E+01
1.379894543E+01  2.302715302E+01
1.380552105E+01  2.328201485E+01
1.381209667E+01  2.385476494E+01
1.381867230E+01  2.417215919E+01
1.382524792E+01  2.591094398E+01
1.383182354E+01  2.667511749E+01
1.383839917E+01  2.691877365E+01
1.384497479E+01  2.728740883E+01
1.385155041E+01  2.748218727E+01
1.385812604E+01  2.862223816E+01
1.386470166E+01  2.854690742E+01
1.387127728E+01  2.967561531E+01
1.387785290E+01  3.125884247E+01
1.388442853E+01  3.406024551E+01
1.389100415E+01  3.511399078E+01
1.389757977E+01  3.505141830E+01
1.390415540E+01  3.705170822E+01
1.391073102E+01  4.049277496E+01
1.391730664E+01  4.357871246E+01
1.392388227E+01  4.926897812E+01
1.393045789E+01  5.477058411E+01
1.393703351E+01  6.251125336E+01
1.394360914E+01  6.763842773E+01
1.395018476E+01  6.551000977E+01
1.395676038E+01  6.206543732E+01
1.396333601E+01  5.495654678E+01
1.396991163E+01  5.361008453E+01
1.397648725E+01  5.322573853E+01
1.398306288E+01  5.345633316E+01
1.398963850E+01  5.407186890E+01
1.399621412E+01  5.458796310E+01
1.400278975E+01  5.610908890E+01
1.400936537E+01  5.510007858E+01
1.401594099E+01  5.481970978E+01
1.402251662E+01  5.361856079E+01
1.402909224E+01  5.115969849E+01
1.403566786E+01  4.871508789E+01
1.404224349E+01  4.805376053E+01
1.404881911E+01  4.837541580E+01
1.405539473E+01  4.848912811E+01
1.406197036E+01  4.735435486E+01
1.406854598E+01  4.578358841E+01
1.407512160E+01  4.407955933E+01
1.408169723E+01  4.288337326E+01
1.408827285E+01  4.213886642E+01
1.409484847E+01  4.140120697E+01
1.410142410E+01  4.006639099E+01
1.410799972E+01  3.856946564E+01
1.411457534E+01  3.587234497E+01
1.412115097E+01  3.426847076E+01
1.412772659E+01  3.316360855E+01
1.413430221E+01  3.334680939E+01
1.414087784E+01  3.191914749E+01
1.414745346E+01  3.110522461E+01
1.415402908E+01  3.071655846E+01
1.416060471E+01  3.111495972E+01
1.416718033E+01  3.033948708E+01
1.417375595E+01  2.979784966E+01
1.418033158E+01  2.874931908E+01
1.418690720E+01  2.913822556E+01
1.419348282E+01  2.842647743E+01
1.420005844E+01  2.881279564E+01
1.420663407E+01  2.750176620E+01
1.421320969E+01  2.552316666E+01
1.421978531E+01  2.462991714E+01
1.422636094E+01  2.291185379E+01
1.423293656E+01  2.254133224E+01
1.423951218E+01  2.265115356E+01
1.424608781E+01  2.339463043E+01
1.425266343E+01  2.387868500E+01
1.425923905E+01  2.405154991E+01
1.426581468E+01  2.382434273E+01
1.427239030E+01  2.387869644E+01
1.427896592E+01  2.335815239E+01
1.428554155E+01  2.362402534E+01
1.429211717E+01  2.287649536E+01
1.429869279E+01  2.206281853E+01
1.430526842E+01  2.092223358E+01
1.431184404E+01  2.011977005E+01
1.431841966E+01  2.029163933E+01
1.432499529E+01  2.119466591E+01
1.433157091E+01  2.240939903E+01
1.433814653E+01  2.326395035E+01
1.434472216E+01  2.331006050E+01
1.435129778E+01  2.112339592E+01
1.435787340E+01  2.051546860E+01
1.436444903E+01  2.103997231E+01
1.437102465E+01  2.279943085E+01
1.437760027E+01  2.734753990E+01
1.438417590E+01  3.209053421E+01
1.439075152E+01  3.441463470E+01
1.439732714E+01  3.656689072E+01
1.440390277E+01  3.203654861E+01
1.441047839E+01  2.745152473E+01
1.441705401E+01  2.294022560E+01
1.442362964E+01  1.967304993E+01
1.443020526E+01  1.846199608E+01
1.443678088E+01  1.795451164E+01
1.444335651E+01  1.832295418E+01
1.444993213E+01  1.991154861E+01
1.445650775E+01  2.007233620E+01
1.446308338E+01  1.956654167E+01
1.446965900E+01  1.784190750E+01
1.447623462E+01  1.805272675E+01
1.448281025E+01  2.005689812E+01
1.448938587E+01  2.221965408E+01
1.449596149E+01  2.295700264E+01
1.450253712E+01  2.219374466E+01
1.450911274E+01  2.142694283E+01
1.451568836E+01  2.117759323E+01
1.452226399E+01  2.067957687E+01
1.452883961E+01  1.955740166E+01
1.453541523E+01  1.913430786E+01
1.454199085E+01  1.901869202E+01
1.454856648E+01  1.915684128E+01
1.455514210E+01  2.022941589E+01
1.456171772E+01  2.129159164E+01
1.456829335E+01  2.084580612E+01
1.457486897E+01  1.926169014E+01
1.458144459E+01  1.919744301E+01
1.458802022E+01  2.009202766E+01
1.459459584E+01  1.937512970E+01
1.460117146E+01  1.925573540E+01
1.460774709E+01  1.976655388E+01
1.461432271E+01  1.943199921E+01
1.462089833E+01  1.847960663E+01
1.462747396E+01  1.734492302E+01
1.463404958E+01  1.651866722E+01
1.464062520E+01  1.571274948E+01
1.464720083E+01  1.581974697E+01
1.465377645E+01  1.719658661E+01
1.466035207E+01  1.825879478E+01
1.466692770E+01  1.891896439E+01
1.467350332E+01  1.891000175E+01
1.468007894E+01  1.938424301E+01
1.468665457E+01  1.934705925E+01
1.469323019E+01  1.883799171E+01
1.469980581E+01  1.918760490E+01
1.470638144E+01  1.934706306E+01
1.471295706E+01  1.813911629E+01
1.471953268E+01  1.817899323E+01
1.472610831E+01  1.917225266E+01
1.473268393E+01  2.193725014E+01
1.473925955E+01  2.413462639E+01
1.474583518E+01  2.396359062E+01
1.475241080E+01  2.215265846E+01
1.475898642E+01  2.064810944E+01
1.476556205E+01  1.927562714E+01
1.477213767E+01  1.791459656E+01
1.477871329E+01  1.710115242E+01
1.478528892E+01  1.765559959E+01
1.479186454E+01  1.878692436E+01
1.479844016E+01  1.871191597E+01
1.480501579E+01  1.780216026E+01
1.481159141E+01  1.819485855E+01
1.481816703E+01  1.940222359E+01
1.482474266E+01  2.094036484E+01
1.483131828E+01  2.109981155E+01
1.483789390E+01  2.060273743E+01
1.484446953E+01  1.929142761E+01
1.485104515E+01  1.812975502E+01
1.485762077E+01  1.759721756E+01
1.486419639E+01  1.878073311E+01
1.487077202E+01  1.888196945E+01
1.487734764E+01  1.734966469E+01
1.488392326E+01  1.676292992E+01
1.489049889E+01  1.652900124E+01
1.489707451E+01  1.588812065E+01
1.490365013E+01  1.661520386E+01
1.491022576E+01  1.546270180E+01
1.491680138E+01  1.355807114E+01
1.492337700E+01  1.293940830E+01
1.492995263E+01  1.433719826E+01
1.493652825E+01  1.489500713E+01
1.494310387E+01  1.603130913E+01
1.494967950E+01  1.724563026E+01
1.495625512E+01  1.712978172E+01
1.496283074E+01  1.690741539E+01
1.496940637E+01  1.510393620E+01
1.497598199E+01  1.535998535E+01
1.498255761E+01  1.555399799E+01
1.498913324E+01  1.495210457E+01
1.499570886E+01  1.369396973E+01
1.500228448E+01  1.296759892E+01
1.500886011E+01  1.317535305E+01
1.501543573E+01  1.302427864E+01
1.502201135E+01  1.338548756E+01
1.502858698E+01  1.448848724E+01
1.503516260E+01  1.400272846E+01
1.504173822E+01  1.384277821E+01
1.504831385E+01  1.338023281E+01
1.505488947E+01  1.249108505E+01
1.506146509E+01  1.240484238E+01
1.506804072E+01  1.167523193E+01
1.507461634E+01  1.159230518E+01
1.508119196E+01  1.157697678E+01
1.508776759E+01  1.073863506E+01
1.509434321E+01  9.674950600E+00
1.510091883E+01  1.000605392E+01
1.510749446E+01  1.016067028E+01
1.511407008E+01  1.076088333E+01
1.512064570E+01  1.021588707E+01
1.512722133E+01  1.065020466E+01
1.513379695E+01  1.097937870E+01
1.514037257E+01  1.141533566E+01
1.514694820E+01  1.177156639E+01
1.515352382E+01  1.241234207E+01
1.516009944E+01  1.265847778E+01
1.516667507E+01  1.176926517E+01
1.517325069E+01  9.801847458E+00
1.517982631E+01  8.605360031E+00
1.518640194E+01  8.191538811E+00
1.519297756E+01  8.333348274E+00
1.519955318E+01  8.620648384E+00
1.520612880E+01  7.656482697E+00
1.521270443E+01  7.497510433E+00
1.521928005E+01  6.995312214E+00
1.522585567E+01  7.430180073E+00
1.523243130E+01  7.940317631E+00
1.523900692E+01  7.616076469E+00
1.524558254E+01  7.802204609E+00
1.525215817E+01  9.344427109E+00
1.525873379E+01  1.169637871E+01
1.526530941E+01  1.150310230E+01
1.527188504E+01  1.104050159E+01
1.527846066E+01  1.058154869E+01
1.528503628E+01  9.342089653E+00
1.529161191E+01  9.745491028E+00
1.529818753E+01  1.013943291E+01
1.530476315E+01  1.021632671E+01
1.531133878E+01  1.123840523E+01
1.531791440E+01  1.283558083E+01
1.532449002E+01  1.371442127E+01
1.533106565E+01  1.468892193E+01
1.533764127E+01  1.514778233E+01
1.534421689E+01  1.577023029E+01
1.535079252E+01  1.573451614E+01
1.535736814E+01  1.458070755E+01
1.536394376E+01  1.387377548E+01
1.537051939E+01  1.378952885E+01
1.537709501E+01  1.495934296E+01
1.538367063E+01  1.467426109E+01
1.539024626E+01  1.391429138E+01
1.539682188E+01  1.471559429E+01
1.540339750E+01  1.369342995E+01
1.540997313E+01  1.379411411E+01
1.541654875E+01  1.457528877E+01
1.542312437E+01  1.513707638E+01
1.542970000E+01  1.595411205E+01
1.543627562E+01  1.707329178E+01
1.544285124E+01  1.700342941E+01
1.544942687E+01  1.653605080E+01
1.545600249E+01  1.769559288E+01
1.546257811E+01  1.914955330E+01
1.546915374E+01  2.256201744E+01
1.547572936E+01  2.444081879E+01
1.548230498E+01  2.567415428E+01
1.548888061E+01  2.524544716E+01
1.549545623E+01  2.605412292E+01
1.550203185E+01  2.742100525E+01
1.550860748E+01  2.979776573E+01
1.551518310E+01  3.269028091E+01
1.552175872E+01  3.652142334E+01
1.552833434E+01  3.880682755E+01
1.553490997E+01  4.172717285E+01
1.554148559E+01  4.498120499E+01
1.554806121E+01  4.955282974E+01
1.555463684E+01  5.629752350E+01
1.556121246E+01  6.332175064E+01
1.556778808E+01  7.148392487E+01
1.557436371E+01  8.024255371E+01
1.558093933E+01  8.639257812E+01
1.558751495E+01  9.557267761E+01
1.559409058E+01  1.036520081E+02
1.560066620E+01  1.122560883E+02
1.560724182E+01  1.196544495E+02
1.561381745E+01  1.266967239E+02
1.562039307E+01  1.352418060E+02
1.562696869E+01  1.377160034E+02
1.563354432E+01  1.430480194E+02
1.564011994E+01  1.451880798E+02
1.564669556E+01  1.528915710E+02
1.565327119E+01  1.621502075E+02
1.565984681E+01  1.769195862E+02
1.566642243E+01  1.955498199E+02
1.567299806E+01  2.154364319E+02
1.567957368E+01  2.384041443E+02
1.568614930E+01  2.658983154E+02
1.569272493E+01  2.959545593E+02
1.569930055E+01  3.278517456E+02
1.570587617E+01  3.610957642E+02
1.571245180E+01  3.967666626E+02
1.571902742E+01  4.344895020E+02
1.572560304E+01  4.704278870E+02
1.573217867E+01  5.042492981E+02
1.573875429E+01  5.317047119E+02
1.574532991E+01  5.434421387E+02
1.575190554E+01  5.485753174E+02
1.575848116E+01  5.429915161E+02
1.576505678E+01  5.197586060E+02
1.577163241E+01  4.909181519E+02
1.577820803E+01  4.571986084E+02
1.578478365E+01  4.210375366E+02
1.579135928E+01  3.846922913E+02
1.579793490E+01  3.479650879E+02
1.580451052E+01  3.142563477E+02
1.581108615E+01  2.842521362E+02
1.581766177E+01  2.583211060E+02
1.582423739E+01  2.322274475E+02
1.583081302E+01  2.101591187E+02
1.583738864E+01  1.910497437E+02
1.584396426E+01  1.748377991E+02
1.585053988E+01  1.601356049E+02
1.585711551E+01  1.472029419E+02
1.586369113E+01  1.362473145E+02
1.587026675E+01  1.268375931E+02
1.587684238E+01  1.181876297E+02
1.588341800E+01  1.108526230E+02
1.588999362E+01  1.031304092E+02
1.589656925E+01  9.718946075E+01
1.590314487E+01  9.210984802E+01
1.590972049E+01  8.728610992E+01
1.591629612E+01  8.179490662E+01
1.592287174E+01  7.643115234E+01
1.592944736E+01  7.191995239E+01
1.593602299E+01  6.974713898E+01
1.594259861E+01  6.769104767E+01
1.594917423E+01  6.450459290E+01
1.595574986E+01  6.095780182E+01
1.596232548E+01  5.803406906E+01
1.596890110E+01  5.476708984E+01
1.597547673E+01  5.295813751E+01
1.598205235E+01  5.143240356E+01
1.598862797E+01  5.028364182E+01
1.599520360E+01  4.887659836E+01
1.600177922E+01  4.719858170E+01
1.600835484E+01  4.665682602E+01
1.601493047E+01  4.355553055E+01
1.602150609E+01  4.267692184E+01
1.602808171E+01  4.189162064E+01
1.603465734E+01  4.205850983E+01
1.604123296E+01  4.094175720E+01
1.604780858E+01  3.903648758E+01
1.605438421E+01  3.711516571E+01
1.606095983E+01  3.611579132E+01
1.606753545E+01  3.380057526E+01
1.607411108E+01  3.153915596E+01
1.608068670E+01  2.956347275E+01
1.608726232E+01  3.029003525E+01
1.609383795E+01  2.932383537E+01
1.610041357E+01  2.796126366E+01
1.610698919E+01  2.556463242E+01
1.611356482E+01  2.454020119E+01
1.612014044E+01  2.374637222E+01
1.612671606E+01  2.356791687E+01
1.613329169E+01  2.387349510E+01
1.613986731E+01  2.387063217E+01
1.614644293E+01  2.361694527E+01
1.615301856E+01  2.319691467E+01
1.615959418E+01  2.306464386E+01
1.616616980E+01  2.242179298E+01
1.617274543E+01  2.248906708E+01
1.617932105E+01  2.162291336E+01
1.618589667E+01  2.060653305E+01
1.619247229E+01  1.945115280E+01
1.619904792E+01  1.850589371E+01
1.620562354E+01  1.832836723E+01
1.621219916E+01  1.882530785E+01
1.621877479E+01  1.993616295E+01
1.622535041E+01  1.999295807E+01
1.623192603E+01  2.167976761E+01
1.623850166E+01  2.370654297E+01
1.624507728E+01  2.479642105E+01
1.625165290E+01  2.629949188E+01
1.625822853E+01  2.636027336E+01
1.626480415E+01  2.597436333E+01
1.627137977E+01  2.505581093E+01
1.627795540E+01  2.620958710E+01
1.628453102E+01  2.664368820E+01
1.629110664E+01  2.774872589E+01
1.629768227E+01  2.883621597E+01
1.630425789E+01  3.066932678E+01
1.631083351E+01  3.319043350E+01
1.631740914E+01  3.596641541E+01
1.632398476E+01  3.825263596E+01
1.633056038E+01  4.211548996E+01
1.633713601E+01  4.509256744E+01
1.634371163E+01  4.849879837E+01
1.635028725E+01  5.051972198E+01
1.635686288E+01  5.431402206E+01
1.636343850E+01  5.846762848E+01
1.637001412E+01  6.217633438E+01
1.637658975E+01  6.680390930E+01
1.638316537E+01  7.280444336E+01
1.638974099E+01  8.003681946E+01
1.639631662E+01  8.898541260E+01
1.640289224E+01  9.728254700E+01
1.640946786E+01  1.038964691E+02
1.641604349E+01  1.098672333E+02
1.642261911E+01  1.173378906E+02
1.642919473E+01  1.241189957E+02
1.643577036E+01  1.291597595E+02
1.644234598E+01  1.359347992E+02
1.644892160E+01  1.382234039E+02
1.645549723E+01  1.357575073E+02
1.646207285E+01  1.337353668E+02
1.646864847E+01  1.276037369E+02
1.647522410E+01  1.229466171E+02
1.648179972E+01  1.177273788E+02
1.648837534E+01  1.120710144E+02
1.649495097E+01  1.053051682E+02
1.650152659E+01  9.922524261E+01
1.650810221E+01  9.241082764E+01
1.651467783E+01  8.591074371E+01
1.652125346E+01  7.992127991E+01
1.652782908E+01  7.556741333E+01
1.653440470E+01  7.067142487E+01
1.654098033E+01  6.586512756E+01
1.654755595E+01  6.041657639E+01
1.655413157E+01  5.641024017E+01
1.656070720E+01  5.230362701E+01
1.656728282E+01  5.023392868E+01
1.657385844E+01  4.835396194E+01
1.658043407E+01  4.557777405E+01
1.658700969E+01  4.279402542E+01
1.659358531E+01  4.040455627E+01
1.660016094E+01  3.975992584E+01
1.660673656E+01  3.953737259E+01
1.661331218E+01  3.845269394E+01
1.661988781E+01  3.700684357E+01
1.662646343E+01  3.686582565E+01
1.663303905E+01  3.587043381E+01
1.663961468E+01  3.525307846E+01
1.664619030E+01  3.510699463E+01
1.665276592E+01  3.500784683E+01
1.665934155E+01  3.543560028E+01
1.666591717E+01  3.704795074E+01
1.667249279E+01  3.869106674E+01
1.667906842E+01  3.951093292E+01
1.668564404E+01  4.052266312E+01
1.669221966E+01  4.071257401E+01
1.669879529E+01  4.139852142E+01
1.670537091E+01  4.136027145E+01
1.671194653E+01  4.267154694E+01
1.671852216E+01  4.413018036E+01
1.672509778E+01  4.573079300E+01
1.673167340E+01  4.792893982E+01
1.673824903E+01  4.838574219E+01
1.674482465E+01  4.713928223E+01
1.675140027E+01  4.558749771E+01
1.675797590E+01  4.514542007E+01
1.676455152E+01  4.577740097E+01
1.677112714E+01  4.548733521E+01
1.677770277E+01  4.474592972E+01
1.678427839E+01  4.397797775E+01
1.679085401E+01  4.352087402E+01
1.679742964E+01  4.312315750E+01
1.680400526E+01  4.275259399E+01
1.681058088E+01  4.284179688E+01
1.681715651E+01  4.375111008E+01
1.682373213E+01  4.392047119E+01
1.683030775E+01  4.422975922E+01
1.683688338E+01  4.392945099E+01
1.684345900E+01  4.169483948E+01
1.685003462E+01  4.041067886E+01
1.685661024E+01  4.011016083E+01
1.686318587E+01  4.058820343E+01
1.686976149E+01  4.252447510E+01
1.687633711E+01  4.386819077E+01
1.688291274E+01  4.552411652E+01
1.688948836E+01  4.736431122E+01
1.689606398E+01  4.750545502E+01
1.690263961E+01  4.804323959E+01
1.690921523E+01  4.918320465E+01
1.691579085E+01  5.017972946E+01
1.692236648E+01  5.120906448E+01
1.692894210E+01  5.206513214E+01
1.693551772E+01  5.345738220E+01
1.694209335E+01  5.363725662E+01
1.694866897E+01  5.418774033E+01
1.695524459E+01  5.416349792E+01
1.696182022E+01  5.470268631E+01
1.696839584E+01  5.424034119E+01
1.697497146E+01  5.320465851E+01
1.698154709E+01  5.205069351E+01
1.698812271E+01  5.106064606E+01
1.699469833E+01  5.062756348E+01
1.700127396E+01  5.008735657E+01
1.700784958E+01  4.908795547E+01
1.701442520E+01  4.947455215E+01
1.702100083E+01  4.979644012E+01
1.702757645E+01  4.891395569E+01
1.703415207E+01  4.818206406E+01
1.704072770E+01  4.683609390E+01
1.704730332E+01  4.554204559E+01
1.705387894E+01  4.574131775E+01
1.706045457E+01  4.671612167E+01
1.706703019E+01  4.736390305E+01
1.707360581E+01  4.662411499E+01
1.708018144E+01  4.503189468E+01
1.708675706E+01  4.343294525E+01
1.709333268E+01  4.293126297E+01
1.709990831E+01  4.335203552E+01
1.710648393E+01  4.331635284E+01
1.711305955E+01  4.195067978E+01
1.711963518E+01  3.932581329E+01
1.712621080E+01  3.685190201E+01
1.713278642E+01  3.529213333E+01
1.713936205E+01  3.528517151E+01
1.714593767E+01  3.337398911E+01
1.715251329E+01  3.240085983E+01
1.715908892E+01  3.149469185E+01
1.716566454E+01  3.050850677E+01
1.717224016E+01  3.006632233E+01
1.717881578E+01  3.009244728E+01
1.718539141E+01  2.923775673E+01
1.719196703E+01  2.921171188E+01
1.719854265E+01  2.873354149E+01
1.720511828E+01  2.805909348E+01
1.721169390E+01  2.760486031E+01
1.721826952E+01  2.657346153E+01
1.722484515E+01  2.518900299E+01
1.723142077E+01  2.315752411E+01
1.723799639E+01  2.160888863E+01
1.724457202E+01  2.085899353E+01
1.725114764E+01  2.122568893E+01
1.725772326E+01  2.131246948E+01
1.726429889E+01  2.210271072E+01
1.727087451E+01  2.102168274E+01
1.727745013E+01  2.102883339E+01
1.728402576E+01  2.163878822E+01
1.729060138E+01  2.172310448E+01
1.729717700E+01  2.150343895E+01
1.730375263E+01  2.083865547E+01
1.731032825E+01  2.000168037E+01
1.731690387E+01  1.883575249E+01
1.732347950E+01  1.667923164E+01
1.733005512E+01  1.547887611E+01
1.733663074E+01  1.402470684E+01
1.734320637E+01  1.232647324E+01
1.734978199E+01  1.282849598E+01
1.735635761E+01  1.340625286E+01
1.736293324E+01  1.413150883E+01
1.736950886E+01  1.267613029E+01
1.737608448E+01  1.259138107E+01
1.738266011E+01  1.224883842E+01
1.738923573E+01  1.294342041E+01
1.739581135E+01  1.321321297E+01
1.740238698E+01  1.375792313E+01
1.740896260E+01  1.568595219E+01
1.741553822E+01  1.563011456E+01
1.742211385E+01  1.519539642E+01
1.742868947E+01  1.498824787E+01
1.743526509E+01  1.412781715E+01
1.744184072E+01  1.208334732E+01
1.744841634E+01  1.078013802E+01
1.745499196E+01  1.126409531E+01
1.746156759E+01  1.126715851E+01
1.746814321E+01  1.206130600E+01
1.747471883E+01  1.235015488E+01
1.748129446E+01  1.213761520E+01
1.748787008E+01  1.243784904E+01
1.749444570E+01  1.350720406E+01
1.750102132E+01  1.395700836E+01
1.750759695E+01  1.405141830E+01
1.751417257E+01  1.415761566E+01
1.752074819E+01  1.378438377E+01
1.752732382E+01  1.349714279E+01
1.753389944E+01  1.342722988E+01
1.754047506E+01  1.243596077E+01
1.754705069E+01  1.201843739E+01
1.755362631E+01  1.255403805E+01
1.756020193E+01  1.300173092E+01
1.756677756E+01  1.245964146E+01
1.757335318E+01  1.175880527E+01
1.757992880E+01  1.145535278E+01
1.758650443E+01  1.136713696E+01
1.759308005E+01  1.099071789E+01
1.759965567E+01  1.155556774E+01
1.760623130E+01  1.078578854E+01
1.761280692E+01  1.275069809E+01
1.761938254E+01  1.369099998E+01
1.762595817E+01  1.477464962E+01
1.763253379E+01  1.424528408E+01
1.763910941E+01  1.474498177E+01
1.764568504E+01  1.421269798E+01
1.765226066E+01  1.458006668E+01
1.765883628E+01  1.478458309E+01
1.766541191E+01  1.496687126E+01
1.767198753E+01  1.589109135E+01
1.767856315E+01  1.518957138E+01
1.768513878E+01  1.470899677E+01
1.769171440E+01  1.349869442E+01
1.769829002E+01  1.233162308E+01
1.770486565E+01  1.220437717E+01
1.771144127E+01  1.249246120E+01
1.771801689E+01  1.306258869E+01
1.772459252E+01  1.417649746E+01
1.773116814E+01  1.488254356E+01
1.773774376E+01  1.424226952E+01
1.774431939E+01  1.421956062E+01
1.775089501E+01  1.530710983E+01
1.775747063E+01  1.725786400E+01
1.776404626E+01  1.775347900E+01
1.777062188E+01  1.770168304E+01
1.777719750E+01  1.891840553E+01
1.778377313E+01  2.003402710E+01
1.779034875E+01  2.010324097E+01
1.779692437E+01  1.996199226E+01
1.780350000E+01  1.953117561E+01
1.781007562E+01  1.945678902E+01
1.781665124E+01  1.885992050E+01
1.782322687E+01  1.870296288E+01
1.782980249E+01  2.031744957E+01
1.783637811E+01  2.105395508E+01
1.784295373E+01  2.115367126E+01
1.784952936E+01  2.133240318E+01
1.785610498E+01  2.150419235E+01
1.786268060E+01  2.213240051E+01
1.786925623E+01  2.318184471E+01
1.787583185E+01  2.384538078E+01
1.788240747E+01  2.412981796E+01
1.788898310E+01  2.389695358E+01
1.789555872E+01  2.375175095E+01
1.790213434E+01  2.340170860E+01
1.790870997E+01  2.330091476E+01
1.791528559E+01  2.282337952E+01
1.792186121E+01  2.131723595E+01
1.792843684E+01  2.054712868E+01
1.793501246E+01  2.005455589E+01
1.794158808E+01  2.049967575E+01
1.794816371E+01  2.096208382E+01
1.795473933E+01  2.203553581E+01
1.796131495E+01  2.195002556E+01
1.796789058E+01  2.184814453E+01
1.797446620E+01  2.159465981E+01
1.798104182E+01  2.188197708E+01
1.798761745E+01  2.163638496E+01
1.799419307E+01  2.219677925E+01
1.800076869E+01  2.313203621E+01
1.800734432E+01  2.518241501E+01
1.801391994E+01  2.652226067E+01
1.802049556E+01  2.717943382E+01
1.802707119E+01  2.746450615E+01
1.803364681E+01  2.702984619E+01
1.804022243E+01  2.659617805E+01
1.804679806E+01  2.578314972E+01
1.805337368E+01  2.549946594E+01
1.805994930E+01  2.490139008E+01
1.806652493E+01  2.437759781E+01
1.807310055E+01  2.416686249E+01
1.807967617E+01  2.553822327E+01
1.808625180E+01  2.692428970E+01
1.809282742E+01  2.785678673E+01
1.809940304E+01  2.864575577E+01
1.810597867E+01  2.965641212E+01
1.811255429E+01  3.032427597E+01
1.811912991E+01  2.942568779E+01
1.812570554E+01  2.800749207E+01
1.813228116E+01  2.730403328E+01
1.813885678E+01  2.924057007E+01
1.814543241E+01  3.000408173E+01
1.815200803E+01  3.078887177E+01
1.815858365E+01  3.117059708E+01
1.816515927E+01  3.143877983E+01
1.817173490E+01  3.135267258E+01
1.817831052E+01  3.094155121E+01
1.818488614E+01  2.962727737E+01
1.819146177E+01  2.881169701E+01
1.819803739E+01  3.010759735E+01
1.820461301E+01  3.035873222E+01
1.821118864E+01  3.104948044E+01
1.821776426E+01  3.134782600E+01
1.822433988E+01  3.152771378E+01
1.823091551E+01  3.127861977E+01
1.823749113E+01  3.137693787E+01
1.824406675E+01  2.950238991E+01
1.825064238E+01  2.773313522E+01
1.825721800E+01  2.799254799E+01
1.826379362E+01  2.803994370E+01
1.827036925E+01  2.761608315E+01
1.827694487E+01  2.622051048E+01
1.828352049E+01  2.483324051E+01
1.829009612E+01  2.529219055E+01
1.829667174E+01  2.622531700E+01
1.830324736E+01  2.783575821E+01
1.830982299E+01  2.856786346E+01
1.831639861E+01  2.837866592E+01
1.832297423E+01  2.667294884E+01
1.832954986E+01  2.591114616E+01
1.833612548E+01  2.655222511E+01
1.834270110E+01  2.706099892E+01
1.834927673E+01  2.685393715E+01
1.835585235E+01  2.665414429E+01
1.836242797E+01  2.556703758E+01
1.836900360E+01  2.548124313E+01
1.837557922E+01  2.547824478E+01
1.838215484E+01  2.597839928E+01
1.838873047E+01  2.622481155E+01
1.839530609E+01  2.601088524E+01
1.840188171E+01  2.746254730E+01
1.840845734E+01  2.861685753E+01
1.841503296E+01  2.966225243E+01
1.842160858E+01  3.023639488E+01
1.842818421E+01  2.931924057E+01
1.843475983E+01  2.894983482E+01
1.844133545E+01  2.842114449E+01
1.844791108E+01  2.748756409E+01
1.845448670E+01  2.682587051E+01
1.846106232E+01  2.706255150E+01
1.846763795E+01  2.615222931E+01
1.847421357E+01  2.616623306E+01
1.848078919E+01  2.776281357E+01
1.848736482E+01  2.770227623E+01
1.849394044E+01  2.680400848E+01
1.850051606E+01  2.623310280E+01
1.850709168E+01  2.636754036E+01
1.851366731E+01  2.529428291E+01
1.852024293E+01  2.481171036E+01
1.852681855E+01  2.416594696E+01
1.853339418E+01  2.378182030E+01
1.853996980E+01  2.295767784E+01
1.854654542E+01  2.351870918E+01
1.855312105E+01  2.437554359E+01
1.855969667E+01  2.483478546E+01
1.856627229E+01  2.555703354E+01
1.857284792E+01  2.686547089E+01
1.857942354E+01  2.704273987E+01
1.858599916E+01  2.642811012E+01
1.859257479E+01  2.591163063E+01
1.859915041E+01  2.633695412E+01
1.860572603E+01  2.605994034E+01
1.861230166E+01  2.468302917E+01
1.861887728E+01  2.323933220E+01
1.862545290E+01  2.302954292E+01
1.863202853E+01  2.291296577E+01
1.863860415E+01  2.230408478E+01
1.864517977E+01  2.083957672E+01
1.865175540E+01  1.965222549E+01
1.865833102E+01  1.875032234E+01
1.866490664E+01  1.927059746E+01
1.867148227E+01  2.078095436E+01
1.867805789E+01  2.291766739E+01
1.868463351E+01  2.398207474E+01
1.869120914E+01  2.335901642E+01
1.869778476E+01  2.250170708E+01
1.870436038E+01  2.219929886E+01
1.871093601E+01  2.385960388E+01
1.871751163E+01  2.600126266E+01
1.872408725E+01  2.712924385E+01
1.873066288E+01  2.705464363E+01
1.873723850E+01  2.712273026E+01
1.874381412E+01  2.603030396E+01
1.875038975E+01  2.533058739E+01
1.875696537E+01  2.616076279E+01
1.876354099E+01  2.682789993E+01
1.877011662E+01  2.677869225E+01
1.877669224E+01  2.757162285E+01
1.878326786E+01  2.725293922E+01
1.878984349E+01  2.632200050E+01
1.879641911E+01  2.523224831E+01
1.880299473E+01  2.607286453E+01
1.880957036E+01  2.607218361E+01
1.881614598E+01  2.682818413E+01
1.882272160E+01  2.772938156E+01
1.882929722E+01  2.839918327E+01
1.883587285E+01  2.837020111E+01
1.884244847E+01  2.727957916E+01
1.884902409E+01  2.644955826E+01
1.885559972E+01  2.627029228E+01
1.886217534E+01  2.742934227E+01
1.886875096E+01  2.778325653E+01
1.887532659E+01  2.811684036E+01
1.888190221E+01  2.873348236E+01
1.888847783E+01  2.752985764E+01
1.889505346E+01  2.628789902E+01
1.890162908E+01  2.527343178E+01
1.890820470E+01  2.651934814E+01
1.891478033E+01  2.879044914E+01
1.892135595E+01  3.017132187E+01
1.892793157E+01  3.066788673E+01
1.893450720E+01  3.146617699E+01
1.894108282E+01  3.233419418E+01
1.894765844E+01  3.513704300E+01
1.895423407E+01  3.805664825E+01
1.896080969E+01  4.167478180E+01
1.896738531E+01  4.564104080E+01
1.897396094E+01  5.020556259E+01
1.898053656E+01  5.468292618E+01
1.898711218E+01  5.922317123E+01
1.899368781E+01  6.385916519E+01
1.900026343E+01  6.804131317E+01
1.900683905E+01  7.256432343E+01
1.901341468E+01  7.711508179E+01
1.901999030E+01  8.102853394E+01
1.902656592E+01  8.382137299E+01
1.903314155E+01  8.380680084E+01
1.903971717E+01  7.917311096E+01
1.904629279E+01  7.329423523E+01
1.905286842E+01  6.718431854E+01
1.905944404E+01  5.957822800E+01
1.906601966E+01  5.280360794E+01
1.907259529E+01  4.710407257E+01
1.907917091E+01  4.199071884E+01
1.908574653E+01  3.757656860E+01
1.909232216E+01  3.308971405E+01
1.909889778E+01  2.928929901E+01
1.910547340E+01  2.756464767E+01
1.911204903E+01  2.547626877E+01
1.911862465E+01  2.332423973E+01
1.912520027E+01  2.170342445E+01
1.913177590E+01  2.144151688E+01
1.913835152E+01  1.997070503E+01
1.914492714E+01  1.826426315E+01
1.915150276E+01  1.601194763E+01
1.915807839E+01  1.420258999E+01
1.916465401E+01  1.261197186E+01
1.917122963E+01  1.036829853E+01
1.917780526E+01  8.851639748E+00
1.918438088E+01  8.376032829E+00
1.919095650E+01  8.022925377E+00
1.919753213E+01  7.571241856E+00
1.920410775E+01  7.222817898E+00
1.921068337E+01  7.526051998E+00
1.921725900E+01  7.301967621E+00
1.922383462E+01  5.525850773E+00
1.923041024E+01  5.099527836E+00
1.923698587E+01  4.430830956E+00
1.924356149E+01  3.676220417E+00
1.925013711E+01  3.079707384E+00
1.925671274E+01  1.996951461E+00
1.926328836E+01  1.781795263E+00
1.926986398E+01  1.648502350E+00
1.927643961E+01  1.628816605E+00
1.928301523E+01  1.265395403E+00
1.928959085E+01  1.172897339E+00
1.929616648E+01  2.108238697E+00
1.930274210E+01  3.789668560E+00
1.930931772E+01  4.870330811E+00
1.931589335E+01  4.846497536E+00
1.932246897E+01  4.100142002E+00
1.932904459E+01  3.044113398E+00
1.933562022E+01  2.072140932E+00
1.934219584E+01  1.160521030E+00
1.934877146E+01  7.931333780E-01
1.935534709E+01  -2.473828495E-01
1.936192271E+01  -6.393683553E-01
1.936849833E+01  -1.727293432E-01
1.937507396E+01  3.740102947E-01
1.938164958E+01  -4.214490354E-01
1.938822520E+01  -2.983970046E-01
1.939480083E+01  9.604202956E-02
1.940137645E+01  1.801736355E-01
1.940795207E+01  1.321190894E-01
1.941452770E+01  2.305554152E-01
1.942110332E+01  1.396725029E-01
1.942767894E+01  4.367143847E-03
1.943425457E+01  -5.724191666E-01
1.944083019E+01  -1.372961253E-01
1.944740581E+01  4.678501189E-01
1.945398144E+01  -6.978126615E-02
1.946055706E+01  -2.151841074E-01
1.946713268E+01  4.153735340E-01
1.947370831E+01  -2.233886421E-01
1.948028393E+01  -1.229708567E-01
1.948685955E+01  1.430582702E-01
1.949343517E+01  -3.345762566E-02
