# == pyFAI calibration ==
# Distance Sample to Detector: 0.400151958433 m
# PONI: 1.472e-01, 1.496e-01 m
# Rotations: -0.001085 0.000539 -0.000000 rad
# 
# == Fit2d calibration ==
# Distance Sample-beamCenter: 400.152 mm
# Center: x=1500.210, y=1474.586 pix
# Tilt: 0.069 deg  TiltPlanRot: 26.426 deg
# 
# Detector Detector	 Spline= None	 PixelSize= 1.000e-04, 1.000e-04 m
#    Detector has a mask: False 
#    Detector has a dark current: False 
#    detector has a flat field: False 
# 
# Wavelength: 4.12969e-11 m
# Mask applied: None
# Dark current applied: None
# Flat field applied: None
# Polarization factor: None
# Normalization factor: None
#
# 2th_deg	 I
6.000256231E+00  1.614062302E-02
6.006831854E+00  -9.579797834E-02
6.013407478E+00  2.275424302E-01
6.019983101E+00  -2.767190337E-01
6.026558724E+00  1.780738384E-01
6.033134347E+00  -1.369962003E-02
6.039709971E+00  -2.021813095E-01
6.046285594E+00  5.426591635E-01
6.052861217E+00  5.013419390E-01
6.059436840E+00  1.274571419E+00
6.066012464E+00  2.706458807E+00
6.072588087E+00  2.279692650E+00
6.079163710E+00  1.767583966E+00
6.085739334E+00  -9.260430187E-02
6.092314957E+00  1.713789701E-01
6.098890580E+00  -4.436587691E-01
6.105466203E+00  -5.520727634E-01
6.112041827E+00  -9.866066277E-03
6.118617450E+00  6.669808626E-01
6.125193073E+00  3.323656619E-01
6.131768696E+00  4.886592627E-01
6.138344320E+00  2.865006328E-01
6.144919943E+00  -4.694389179E-02
6.151495566E+00  -3.194953799E-01
6.158071190E+00  2.622137964E-01
6.164646813E+00  1.055439353E+00
6.171222436E+00  1.654662251E+00
6.177798059E+00  3.140968800E+00
6.184373683E+00  4.451906204E+00
6.190949306E+00  7.397249699E+00
6.197524929E+00  8.299999237E+00
6.204100552E+00  7.937746048E+00
6.210676176E+00  6.383352757E+00
6.217251799E+00  6.491128445E+00
6.223827422E+00  4.861544609E+00
6.230403045E+00  4.971548557E+00
6.236978669E+00  3.472447157E+00
6.243554292E+00  2.761807203E+00
6.250129915E+00  3.209009886E+00
6.256705539E+00  4.081560612E+00
6.263281162E+00  5.125505447E+00
6.269856785E+00  6.718636990E+00
6.276432408E+00  6.942412376E+00
6.283008032E+00  7.300846577E+00
6.289583655E+00  6.051196575E+00
6.296159278E+00  6.059777737E+00
6.302734901E+00  6.594748974E+00
6.309310525E+00  6.851297379E+00
6.315886148E+00  9.291971207E+00
6.322461771E+00  1.117864227E+01
6.329037394E+00  1.157538891E+01
6.335613018E+00  1.005108261E+01
6.342188641E+00  9.821166039E+00
6.348764264E+00  7.579868317E+00
6.355339888E+00  7.241358280E+00
6.361915511E+00  6.635252953E+00
6.368491134E+00  7.389150143E+00
6.375066757E+00  6.935197830E+00
6.381642381E+00  6.931471825E+00
6.388218004E+00  6.315935135E+00
6.394793627E+00  6.149470806E+00
6.401369250E+00  6.180601597E+00
6.407944874E+00  6.700744152E+00
6.414520497E+00  6.536673546E+00
6.421096120E+00  7.076675415E+00
6.427671743E+00  7.418039799E+00
6.434247367E+00  8.062153816E+00
6.440822990E+00  7.628878117E+00
6.447398613E+00  6.798209667E+00
6.453974237E+00  7.791246414E+00
6.460549860E+00  7.902659893E+00
6.467125483E+00  6.983842373E+00
6.473701106E+00  6.601343155E+00
6.480276730E+00  6.874014854E+00
6.486852353E+00  6.373871803E+00
6.493427976E+00  6.895851612E+00
6.500003599E+00  8.397977829E+00
6.506579223E+00  9.004520416E+00
6.513154846E+00  9.460081100E+00
6.519730469E+00  9.094182014E+00
6.526306092E+00  9.550748825E+00
6.532881716E+00  8.390155792E+00
6.539457339E+00  7.663445473E+00
6.546032962E+00  6.916234970E+00
6.552608586E+00  5.811038494E+00
6.559184209E+00  5.516187668E+00
6.565759832E+00  6.063510418E+00
6.572335455E+00  6.600048542E+00
6.578911079E+00  6.967659950E+00
6.585486702E+00  7.096583843E+00
6.592062325E+00  6.788897991E+00
6.598637948E+00  6.802268028E+00
6.605213572E+00  7.842630863E+00
6.611789195E+00  7.756093979E+00
6.618364818E+00  8.537970543E+00
6.624940441E+00  9.205829620E+00
6.631516065E+00  1.017278385E+01
6.638091688E+00  1.155534744E+01
6.644667311E+00  1.159994888E+01
6.651242935E+00  1.024615192E+01
6.657818558E+00  8.777776718E+00
6.664394181E+00  7.362684250E+00
6.670969804E+00  6.018102646E+00
6.677545428E+00  5.049096584E+00
6.684121051E+00  5.366187572E+00
6.690696674E+00  5.196774960E+00
6.697272297E+00  5.020431995E+00
6.703847921E+00  3.754941463E+00
6.710423544E+00  3.324650288E+00
6.716999167E+00  2.925118923E+00
6.723574790E+00  2.374684572E+00
6.730150414E+00  6.349710226E-01
6.736726037E+00  1.434671044E+00
6.743301660E+00  1.019550443E+00
6.749877284E+00  1.960801840E+00
6.756452907E+00  2.908224106E+00
6.763028530E+00  4.817277431E+00
6.769604153E+00  6.357780457E+00
6.776179777E+00  5.393406391E+00
6.782755400E+00  4.795896530E+00
6.789331023E+00  3.783198118E+00
6.795906646E+00  3.469760180E+00
6.802482270E+00  2.025470734E+00
6.809057893E+00  1.695189118E+00
6.815633516E+00  1.393716574E+00
6.822209139E+00  2.845687866E+00
6.828784763E+00  2.745237112E+00
6.835360386E+00  3.325576544E+00
6.841936009E+00  2.176864147E+00
6.848511633E+00  2.908309460E+00
6.855087256E+00  2.504127264E+00
6.861662879E+00  2.045457602E+00
6.868238502E+00  2.660558462E+00
6.874814126E+00  3.526265383E+00
6.881389749E+00  3.660226583E+00
6.887965372E+00  2.956787348E+00
6.894540995E+00  2.706764936E+00
6.901116619E+00  1.360141277E+00
6.907692242E+00  1.206726313E+00
6.914267865E+00  1.931089759E+00
6.920843488E+00  3.332043886E+00
6.927419112E+00  3.927868366E+00
6.933994735E+00  4.761977673E+00
6.940570358E+00  5.480801582E+00
6.947145982E+00  5.669238091E+00
6.953721605E+00  5.196115494E+00
6.960297228E+00  3.540610075E+00
6.966872851E+00  3.300305843E+00
6.973448475E+00  3.596959591E+00
6.980024098E+00  4.147547245E+00
6.986599721E+00  5.077256203E+00
6.993175344E+00  6.419730186E+00
6.999750968E+00  5.025762081E+00
7.006326591E+00  5.448061466E+00
7.012902214E+00  4.567232132E+00
7.019477837E+00  4.021459103E+00
7.026053461E+00  3.899379492E+00
7.032629084E+00  3.733734369E+00
7.039204707E+00  3.921045542E+00
7.045780331E+00  2.561701059E+00
7.052355954E+00  3.522210360E+00
7.058931577E+00  4.216207027E+00
7.065507200E+00  5.005570889E+00
7.072082824E+00  5.364730358E+00
7.078658447E+00  6.103074074E+00
7.085234070E+00  6.296100616E+00
7.091809693E+00  6.818129539E+00
7.098385317E+00  6.555925369E+00
7.104960940E+00  7.642092705E+00
7.111536563E+00  8.026607513E+00
7.118112186E+00  7.851574898E+00
7.124687810E+00  6.949272156E+00
7.131263433E+00  7.822131157E+00
7.137839056E+00  7.657142639E+00
7.144414680E+00  7.635183334E+00
7.150990303E+00  7.074326515E+00
7.157565926E+00  8.163243294E+00
7.164141549E+00  9.746602058E+00
7.170717173E+00  1.054895306E+01
7.177292796E+00  1.084024906E+01
7.183868419E+00  1.021075916E+01
7.190444042E+00  8.918231964E+00
7.197019666E+00  8.037314415E+00
7.203595289E+00  6.181722164E+00
7.210170912E+00  4.391936302E+00
7.216746535E+00  4.365185261E+00
7.223322159E+00  4.886110306E+00
7.229897782E+00  4.862899780E+00
7.236473405E+00  4.250628471E+00
7.243049029E+00  3.603993416E+00
7.249624652E+00  4.313642025E+00
7.256200275E+00  5.362518787E+00
7.262775898E+00  6.333676815E+00
7.269351522E+00  6.867795944E+00
7.275927145E+00  6.670507908E+00
7.282502768E+00  6.697448730E+00
7.289078391E+00  6.101037979E+00
7.295654015E+00  5.907232761E+00
7.302229638E+00  4.956932068E+00
7.308805261E+00  3.999234915E+00
7.315380884E+00  4.509799004E+00
7.321956508E+00  5.724040985E+00
7.328532131E+00  5.335863113E+00
7.335107754E+00  5.887790680E+00
7.341683378E+00  7.480928421E+00
7.348259001E+00  8.922422409E+00
7.354834624E+00  9.753775597E+00
7.361410247E+00  9.925655365E+00
7.367985871E+00  8.851112366E+00
7.374561494E+00  8.036931992E+00
7.381137117E+00  7.210094452E+00
7.387712740E+00  6.952055931E+00
7.394288364E+00  5.791033745E+00
7.400863987E+00  6.203472614E+00
7.407439610E+00  6.337191105E+00
7.414015233E+00  6.586090088E+00
7.420590857E+00  6.697089195E+00
7.427166480E+00  5.648057938E+00
7.433742103E+00  4.724478722E+00
7.440317727E+00  4.495037079E+00
7.446893350E+00  4.083594799E+00
7.453468973E+00  3.973393440E+00
7.460044596E+00  4.225317001E+00
7.466620220E+00  4.250358582E+00
7.473195843E+00  4.820850372E+00
7.479771466E+00  3.387361288E+00
7.486347089E+00  2.228602171E+00
7.492922713E+00  1.681895614E+00
7.499498336E+00  6.783336997E-01
7.506073959E+00  -3.456466645E-02
7.512649582E+00  -7.087706923E-01
7.519225206E+00  5.575748682E-01
7.525800829E+00  1.389009356E+00
7.532376452E+00  1.953060627E+00
7.538952076E+00  2.134074211E+00
7.545527699E+00  1.788583994E+00
7.552103322E+00  1.762888312E+00
7.558678945E+00  1.257794976E+00
7.565254569E+00  1.029791355E+00
7.571830192E+00  1.336842895E+00
7.578405815E+00  2.926184177E+00
7.584981438E+00  5.804824352E+00
7.591557062E+00  7.666302681E+00
7.598132685E+00  6.324767113E+00
7.604708308E+00  4.803352356E+00
7.611283931E+00  3.577829361E+00
7.617859555E+00  3.407168627E+00
7.624435178E+00  3.784222364E+00
7.631010801E+00  3.338066339E+00
7.637586425E+00  2.286633730E+00
7.644162048E+00  2.457711220E+00
7.650737671E+00  2.622432709E+00
7.657313294E+00  1.656898856E+00
7.663888918E+00  2.425966501E+00
7.670464541E+00  3.541059494E+00
7.677040164E+00  4.193177223E+00
7.683615787E+00  4.871643066E+00
7.690191411E+00  5.792817593E+00
7.696767034E+00  6.613475800E+00
7.703342657E+00  7.074363708E+00
7.709918281E+00  7.625199318E+00
7.716493904E+00  8.580434799E+00
7.723069527E+00  9.151971817E+00
7.729645150E+00  1.008588600E+01
7.736220774E+00  9.021306992E+00
7.742796397E+00  8.391795158E+00
7.749372020E+00  8.717820168E+00
7.755947643E+00  8.603831291E+00
7.762523267E+00  7.924786568E+00
7.769098890E+00  7.531716824E+00
7.775674513E+00  7.264423847E+00
7.782250136E+00  7.755193710E+00
7.788825760E+00  8.520105362E+00
7.795401383E+00  9.055222511E+00
7.801977006E+00  8.093920708E+00
7.808552630E+00  7.361769676E+00
7.815128253E+00  5.335810661E+00
7.821703876E+00  3.005789518E+00
7.828279499E+00  1.886849761E+00
7.834855123E+00  2.562502861E+00
7.841430746E+00  3.136287928E+00
7.848006369E+00  2.358724594E+00
7.854581992E+00  1.996942043E+00
7.861157616E+00  2.735068083E+00
7.867733239E+00  4.854893208E+00
7.874308862E+00  5.898467064E+00
7.880884485E+00  5.600227833E+00
7.887460109E+00  4.929480076E+00
7.894035732E+00  4.553772926E+00
7.900611355E+00  4.293490410E+00
7.907186979E+00  5.913840771E+00
7.913762602E+00  6.814311028E+00
7.920338225E+00  8.009619713E+00
7.926913848E+00  8.771807671E+00
7.933489472E+00  8.876821518E+00
7.940065095E+00  8.917496681E+00
7.946640718E+00  8.366060257E+00
7.953216341E+00  8.089753151E+00
7.959791965E+00  7.657470703E+00
7.966367588E+00  9.916913033E+00
7.972943211E+00  1.148628235E+01
7.979518834E+00  1.306970978E+01
7.986094458E+00  1.449729919E+01
7.992670081E+00  1.595071125E+01
7.999245704E+00  1.685476494E+01
8.005821328E+00  1.818114662E+01
8.012396951E+00  1.938884735E+01
8.018972574E+00  2.014143753E+01
8.025548197E+00  2.074409103E+01
8.032123821E+00  2.213381004E+01
8.038699444E+00  2.549808502E+01
8.045275067E+00  2.878416824E+01
8.051850690E+00  3.338364792E+01
8.058426314E+00  3.683850098E+01
8.065001937E+00  4.011941528E+01
8.071577560E+00  4.330792236E+01
8.078153183E+00  4.768770218E+01
8.084728807E+00  5.212251282E+01
8.091304430E+00  5.824174118E+01
8.097880053E+00  6.630368042E+01
8.104455677E+00  7.555296326E+01
8.111031300E+00  8.445492554E+01
8.117606923E+00  9.300663757E+01
8.124182546E+00  1.039908218E+02
8.130758170E+00  1.170906067E+02
8.137333793E+00  1.317244720E+02
8.143909416E+00  1.480882263E+02
8.150485039E+00  1.678664703E+02
8.157060663E+00  1.914947815E+02
8.163636286E+00  2.195645142E+02
8.170211909E+00  2.521298981E+02
8.176787532E+00  2.886191711E+02
8.183363156E+00  3.302858276E+02
8.189938779E+00  3.798579407E+02
8.196514402E+00  4.342710571E+02
8.203090026E+00  4.930579834E+02
8.209665649E+00  5.538739624E+02
8.216241272E+00  6.126459351E+02
8.222816895E+00  6.554353027E+02
8.229392519E+00  6.810386353E+02
8.235968142E+00  6.848328247E+02
8.242543765E+00  6.684996338E+02
8.249119388E+00  6.277103882E+02
8.255695012E+00  5.725589600E+02
8.262270635E+00  5.094608459E+02
8.268846258E+00  4.443467712E+02
8.275421881E+00  3.873329163E+02
8.281997505E+00  3.355155334E+02
8.288573128E+00  2.895338135E+02
8.295148751E+00  2.522231598E+02
8.301724375E+00  2.206934814E+02
8.308299998E+00  1.944638062E+02
8.314875621E+00  1.713207550E+02
8.321451244E+00  1.530631561E+02
8.328026868E+00  1.374556427E+02
8.334602491E+00  1.255714722E+02
8.341178114E+00  1.151327744E+02
8.347753737E+00  1.064373932E+02
8.354329361E+00  9.684225464E+01
8.360904984E+00  8.895768738E+01
8.367480607E+00  8.067333221E+01
8.374056230E+00  7.401553345E+01
8.380631854E+00  7.039199829E+01
8.387207477E+00  6.819773102E+01
8.393783100E+00  6.501229858E+01
8.400358724E+00  6.197778702E+01
8.406934347E+00  5.887983322E+01
8.413509970E+00  5.603824997E+01
8.420085593E+00  5.205704117E+01
8.426661217E+00  4.836540222E+01
8.433236840E+00  4.739839172E+01
8.439812463E+00  4.828686905E+01
8.446388086E+00  4.881649399E+01
8.452963710E+00  4.929049301E+01
8.459539333E+00  5.018348694E+01
8.466114956E+00  5.053895187E+01
8.472690579E+00  4.932369995E+01
8.479266203E+00  4.888443375E+01
8.485841826E+00  4.958933640E+01
8.492417449E+00  4.962349319E+01
8.498993073E+00  4.950402069E+01
8.505568696E+00  4.893114090E+01
8.512144319E+00  4.747568130E+01
8.518719942E+00  4.272849274E+01
8.525295566E+00  3.806118393E+01
8.531871189E+00  3.234683990E+01
8.538446812E+00  2.894338989E+01
8.545022435E+00  2.760965538E+01
8.551598059E+00  2.670601654E+01
8.558173682E+00  2.557478523E+01
8.564749305E+00  2.352750778E+01
8.571324928E+00  2.210278130E+01
8.577900552E+00  2.172152519E+01
8.584476175E+00  2.122213745E+01
8.591051798E+00  2.166664886E+01
8.597627422E+00  2.138661194E+01
8.604203045E+00  2.096211815E+01
8.610778668E+00  2.196886063E+01
8.617354291E+00  2.143223763E+01
8.623929915E+00  2.140498734E+01
8.630505538E+00  2.082656479E+01
8.637081161E+00  2.092743683E+01
8.643656784E+00  2.195955849E+01
8.650232408E+00  2.426179123E+01
8.656808031E+00  2.530922699E+01
8.663383654E+00  2.500908661E+01
8.669959277E+00  2.372562027E+01
8.676534901E+00  2.389876175E+01
8.683110524E+00  2.425066948E+01
8.689686147E+00  2.367196274E+01
8.696261771E+00  2.146780396E+01
8.702837394E+00  2.116455841E+01
8.709413017E+00  2.257715607E+01
8.715988640E+00  2.419387245E+01
8.722564264E+00  2.474810410E+01
8.729139887E+00  2.470517731E+01
8.735715510E+00  2.442544365E+01
8.742291133E+00  2.347531128E+01
8.748866757E+00  2.281083679E+01
8.755442380E+00  2.085682869E+01
8.762018003E+00  2.003565979E+01
8.768593626E+00  1.868962669E+01
8.775169250E+00  1.671668816E+01
8.781744873E+00  1.627945709E+01
8.788320496E+00  1.585207558E+01
8.794896120E+00  1.416454220E+01
8.801471743E+00  1.305574608E+01
8.808047366E+00  1.300569248E+01
8.814622989E+00  1.305249500E+01
8.821198613E+00  1.294813442E+01
8.827774236E+00  1.301783657E+01
8.834349859E+00  1.402774525E+01
8.840925482E+00  1.411851978E+01
8.847501106E+00  1.279165840E+01
8.854076729E+00  1.147395229E+01
8.860652352E+00  1.050967503E+01
8.867227975E+00  1.008148003E+01
8.873803599E+00  9.656684875E+00
8.880379222E+00  8.541967392E+00
8.886954845E+00  6.665583611E+00
8.893530469E+00  6.309304237E+00
8.900106092E+00  6.491716385E+00
8.906681715E+00  8.236777306E+00
8.913257338E+00  9.600669861E+00
8.919832962E+00  1.084904575E+01
8.926408585E+00  1.166650200E+01
8.932984208E+00  1.122640419E+01
8.939559831E+00  1.151022053E+01
8.946135455E+00  1.313467121E+01
8.952711078E+00  1.359587002E+01
8.959286701E+00  1.437332630E+01
8.965862324E+00  1.363746643E+01
8.972437948E+00  1.449475002E+01
8.979013571E+00  1.470934963E+01
8.985589194E+00  1.472903156E+01
8.992164818E+00  1.424179173E+01
8.998740441E+00  1.447225094E+01
9.005316064E+00  1.534522057E+01
9.011891687E+00  1.665416527E+01
9.018467311E+00  1.757194328E+01
9.025042934E+00  1.856242561E+01
9.031618557E+00  1.914319992E+01
9.038194180E+00  2.083282661E+01
9.044769804E+00  2.246090126E+01
9.051345427E+00  2.450350380E+01
9.057921050E+00  2.677656174E+01
9.064496673E+00  2.811260414E+01
9.071072297E+00  2.886954880E+01
9.077647920E+00  3.117143059E+01
9.084223543E+00  3.331709290E+01
9.090799167E+00  3.444228745E+01
9.097374790E+00  3.548990250E+01
9.103950413E+00  3.682860947E+01
9.110526036E+00  3.684465408E+01
9.117101660E+00  3.875241852E+01
9.123677283E+00  3.976529694E+01
9.130252906E+00  3.996632767E+01
9.136828529E+00  3.962311172E+01
9.143404153E+00  4.081331635E+01
9.149979776E+00  4.218198776E+01
9.156555399E+00  4.335464478E+01
9.163131022E+00  4.361843109E+01
9.169706646E+00  4.625804520E+01
9.176282269E+00  4.707137299E+01
9.182857892E+00  4.775327682E+01
9.189433516E+00  4.944490433E+01
9.196009139E+00  5.345488739E+01
9.202584762E+00  5.810552597E+01
9.209160385E+00  6.076160049E+01
9.215736009E+00  6.158672714E+01
9.222311632E+00  6.360828400E+01
9.228887255E+00  6.608802032E+01
9.235462878E+00  7.613584137E+01
9.242038502E+00  8.235675812E+01
9.248614125E+00  9.206623077E+01
9.255189748E+00  9.251282501E+01
9.261765372E+00  9.071220398E+01
9.268340995E+00  7.382942963E+01
9.274916618E+00  6.631227875E+01
9.281492241E+00  5.859584427E+01
9.288067865E+00  5.467770004E+01
9.294643488E+00  5.176538849E+01
9.301219111E+00  4.852152634E+01
9.307794734E+00  4.553256226E+01
9.314370358E+00  4.235758591E+01
9.320945981E+00  3.947220230E+01
9.327521604E+00  3.835591507E+01
9.334097227E+00  3.915961075E+01
9.340672851E+00  3.960692978E+01
9.347248474E+00  3.907581711E+01
9.353824097E+00  4.021568298E+01
9.360399721E+00  4.179948425E+01
9.366975344E+00  4.379158401E+01
9.373550967E+00  4.648836517E+01
9.380126590E+00  4.933514404E+01
9.386702214E+00  5.371766663E+01
9.393277837E+00  5.919647980E+01
9.399853460E+00  6.275058365E+01
9.406429083E+00  6.785654449E+01
9.413004707E+00  7.511934662E+01
9.419580330E+00  8.395402527E+01
9.426155953E+00  9.424485016E+01
9.432731576E+00  1.049918442E+02
9.439307200E+00  1.185992889E+02
9.445882823E+00  1.361335907E+02
9.452458446E+00  1.582754364E+02
9.459034070E+00  1.845301971E+02
9.465609693E+00  2.155287170E+02
9.472185316E+00  2.513237610E+02
9.478760939E+00  2.923865051E+02
9.485336563E+00  3.360378113E+02
9.491912186E+00  3.816091614E+02
9.498487809E+00  4.274121094E+02
9.505063432E+00  4.581913452E+02
9.511639056E+00  4.784927368E+02
9.518214679E+00  4.786805420E+02
9.524790302E+00  4.627196655E+02
9.531365925E+00  4.303210144E+02
9.537941549E+00  3.753498535E+02
9.544517172E+00  3.278594360E+02
9.551092795E+00  2.895758362E+02
9.557668419E+00  2.586900024E+02
9.564244042E+00  2.358200989E+02
9.570819665E+00  2.157879333E+02
9.577395288E+00  1.964582520E+02
9.583970912E+00  1.788618317E+02
9.590546535E+00  1.657076721E+02
9.597122158E+00  1.513556671E+02
9.603697781E+00  1.389083405E+02
9.610273405E+00  1.277060547E+02
9.616849028E+00  1.183503647E+02
9.623424651E+00  1.091298676E+02
9.630000274E+00  1.027677078E+02
9.636575898E+00  9.796212769E+01
9.643151521E+00  9.331079102E+01
9.649727144E+00  9.048117828E+01
9.656302768E+00  8.890248108E+01
9.662878391E+00  8.897558594E+01
9.669454014E+00  8.931327820E+01
9.676029637E+00  9.055373383E+01
9.682605261E+00  9.161051178E+01
9.689180884E+00  9.398703003E+01
9.695756507E+00  9.639908600E+01
9.702332130E+00  9.992577362E+01
9.708907754E+00  1.030216675E+02
9.715483377E+00  1.055173187E+02
9.722059000E+00  1.058096771E+02
9.728634623E+00  1.042209930E+02
9.735210247E+00  1.016521225E+02
9.741785870E+00  9.839258575E+01
9.748361493E+00  9.459130096E+01
9.754937117E+00  8.973114777E+01
9.761512740E+00  8.550253296E+01
9.768088363E+00  8.006948853E+01
9.774663986E+00  7.510631561E+01
9.781239610E+00  7.061640167E+01
9.787815233E+00  6.812706757E+01
9.794390856E+00  6.500547791E+01
9.800966479E+00  6.228578568E+01
9.807542103E+00  5.925116730E+01
9.814117726E+00  5.608909988E+01
9.820693349E+00  5.212134552E+01
9.827268972E+00  4.720919800E+01
9.833844596E+00  4.368467712E+01
9.840420219E+00  4.089004135E+01
9.846995842E+00  3.761384964E+01
9.853571466E+00  3.574328613E+01
9.860147089E+00  3.379737473E+01
9.866722712E+00  3.269407272E+01
9.873298335E+00  3.067066002E+01
9.879873959E+00  2.979304504E+01
9.886449582E+00  2.780876923E+01
9.893025205E+00  2.742338562E+01
9.899600828E+00  2.894156456E+01
9.906176452E+00  3.080274963E+01
9.912752075E+00  3.164608765E+01
9.919327698E+00  3.023719025E+01
9.925903321E+00  2.900719643E+01
9.932478945E+00  2.634037399E+01
9.939054568E+00  2.475770378E+01
9.945630191E+00  2.498671341E+01
9.952205815E+00  2.738481331E+01
9.958781438E+00  2.962483978E+01
9.965357061E+00  3.098119354E+01
9.971932684E+00  3.307837296E+01
9.978508308E+00  3.599058151E+01
9.985083931E+00  3.872171021E+01
9.991659554E+00  4.048316193E+01
9.998235177E+00  4.356203461E+01
1.000481080E+01  4.662529755E+01
1.001138642E+01  5.110457230E+01
1.001796205E+01  5.549104309E+01
1.002453767E+01  6.126613998E+01
1.003111329E+01  6.767298889E+01
1.003768892E+01  7.441958618E+01
1.004426454E+01  8.010599518E+01
1.005084016E+01  8.663354492E+01
1.005741579E+01  9.523610687E+01
1.006399141E+01  1.010435181E+02
1.007056703E+01  1.067925720E+02
1.007714266E+01  1.104724808E+02
1.008371828E+01  1.145338974E+02
1.009029390E+01  1.170671158E+02
1.009686953E+01  1.207195587E+02
1.010344515E+01  1.248754654E+02
1.011002077E+01  1.296002197E+02
1.011659640E+01  1.346657562E+02
1.012317202E+01  1.394690094E+02
1.012974764E+01  1.433688202E+02
1.013632327E+01  1.463377991E+02
1.014289889E+01  1.501547089E+02
1.014947451E+01  1.534357300E+02
1.015605014E+01  1.550304108E+02
1.016262576E+01  1.549353027E+02
1.016920138E+01  1.539384613E+02
1.017577701E+01  1.485686188E+02
1.018235263E+01  1.408487091E+02
1.018892825E+01  1.314798584E+02
1.019550388E+01  1.217188492E+02
1.020207950E+01  1.097922134E+02
1.020865512E+01  9.848751831E+01
1.021523075E+01  8.908547211E+01
1.022180637E+01  8.059728241E+01
1.022838199E+01  7.306000519E+01
1.023495762E+01  6.652587128E+01
1.024153324E+01  6.175508499E+01
1.024810886E+01  5.628766251E+01
1.025468448E+01  5.252737427E+01
1.026126011E+01  4.854108810E+01
1.026783573E+01  4.557877731E+01
1.027441135E+01  4.176393890E+01
1.028098698E+01  4.089879990E+01
1.028756260E+01  3.948723984E+01
1.029413822E+01  3.880266571E+01
1.030071385E+01  3.692024994E+01
1.030728947E+01  3.509094238E+01
1.031386509E+01  3.343532944E+01
1.032044072E+01  3.299146652E+01
1.032701634E+01  3.206597900E+01
1.033359196E+01  3.221010590E+01
1.034016759E+01  3.256005859E+01
1.034674321E+01  3.373935318E+01
1.035331883E+01  3.429092789E+01
1.035989446E+01  3.501798630E+01
1.036647008E+01  3.533261108E+01
1.037304570E+01  3.436857224E+01
1.037962133E+01  3.448081970E+01
1.038619695E+01  3.468495941E+01
1.039277257E+01  3.508838654E+01
1.039934820E+01  3.523941040E+01
1.040592382E+01  3.649738312E+01
1.041249944E+01  3.650924301E+01
1.041907507E+01  3.789997101E+01
1.042565069E+01  3.828671646E+01
1.043222631E+01  3.956105423E+01
1.043880194E+01  3.811016083E+01
1.044537756E+01  3.674308014E+01
1.045195318E+01  3.563556671E+01
1.045852881E+01  3.421531296E+01
1.046510443E+01  3.153063202E+01
1.047168005E+01  2.832757759E+01
1.047825568E+01  2.636539268E+01
1.048483130E+01  2.569433022E+01
1.049140692E+01  2.535732460E+01
1.049798255E+01  2.571615219E+01
1.050455817E+01  2.531130219E+01
1.051113379E+01  2.576969147E+01
1.051770942E+01  2.421969795E+01
1.052428504E+01  2.175454330E+01
1.053086066E+01  2.042399788E+01
1.053743629E+01  2.089550018E+01
1.054401191E+01  2.034381866E+01
1.055058753E+01  1.730114174E+01
1.055716316E+01  1.409165382E+01
1.056373878E+01  1.099851990E+01
1.057031440E+01  9.349341393E+00
1.057689002E+01  8.618694305E+00
1.058346565E+01  7.420313835E+00
1.059004127E+01  6.948504448E+00
1.059661689E+01  5.578722954E+00
1.060319252E+01  6.917872906E+00
1.060976814E+01  6.265242100E+00
1.061634376E+01  5.487990379E+00
1.062291939E+01  4.359529495E+00
1.062949501E+01  5.419873238E+00
1.063607063E+01  6.075249195E+00
1.064264626E+01  7.302685738E+00
1.064922188E+01  7.108998299E+00
1.065579750E+01  7.581081867E+00
1.066237313E+01  8.290695190E+00
1.066894875E+01  9.534209251E+00
1.067552437E+01  9.916588783E+00
1.068210000E+01  8.256177902E+00
1.068867562E+01  4.530503750E+00
1.069525124E+01  3.285940647E+00
1.070182687E+01  4.431656361E+00
1.070840249E+01  6.555531979E+00
1.071497811E+01  7.243006229E+00
1.072155374E+01  7.578543186E+00
1.072812936E+01  7.840942860E+00
1.073470498E+01  7.329024792E+00
1.074128061E+01  6.685848236E+00
1.074785623E+01  6.594022751E+00
1.075443185E+01  6.997876167E+00
1.076100748E+01  6.908143997E+00
1.076758310E+01  5.378529549E+00
1.077415872E+01  4.038419724E+00
1.078073435E+01  3.894153833E+00
1.078730997E+01  2.814864635E+00
1.079388559E+01  2.341559172E+00
1.080046122E+01  1.675399899E+00
1.080703684E+01  1.724580646E+00
1.081361246E+01  1.826493263E+00
1.082018809E+01  2.515795231E+00
1.082676371E+01  3.145502090E+00
1.083333933E+01  4.375758171E+00
1.083991496E+01  3.529304981E+00
1.084649058E+01  3.932788849E+00
1.085306620E+01  4.296645164E+00
1.085964183E+01  3.733652592E+00
1.086621745E+01  2.580709696E+00
1.087279307E+01  2.718660355E+00
1.087936870E+01  3.121121407E+00
1.088594432E+01  3.502919674E+00
1.089251994E+01  4.286890030E+00
1.089909556E+01  4.292840004E+00
1.090567119E+01  4.624755383E+00
1.091224681E+01  5.933498383E+00
1.091882243E+01  7.375789642E+00
1.092539806E+01  9.790966988E+00
1.093197368E+01  1.045586967E+01
1.093854930E+01  1.092516804E+01
1.094512493E+01  1.145079803E+01
1.095170055E+01  1.216458035E+01
1.095827617E+01  1.186386395E+01
1.096485180E+01  1.160917854E+01
1.097142742E+01  1.074328613E+01
1.097800304E+01  9.957090378E+00
1.098457867E+01  9.459074974E+00
1.099115429E+01  9.324425697E+00
1.099772991E+01  8.385161400E+00
1.100430554E+01  7.289223671E+00
1.101088116E+01  5.899885178E+00
1.101745678E+01  3.330909729E+00
1.102403241E+01  2.317154408E+00
1.103060803E+01  1.948947072E+00
1.103718365E+01  3.320034742E+00
1.104375928E+01  2.655025005E+00
1.105033490E+01  3.109679222E+00
1.105691052E+01  3.988685131E+00
1.106348615E+01  4.887259483E+00
1.107006177E+01  5.339585304E+00
1.107663739E+01  6.135216713E+00
1.108321302E+01  7.115956306E+00
1.108978864E+01  6.582102299E+00
1.109636426E+01  6.275849342E+00
1.110293989E+01  6.272888660E+00
1.110951551E+01  5.961411953E+00
1.111609113E+01  5.723264694E+00
1.112266676E+01  4.417830944E+00
1.112924238E+01  4.964065552E+00
1.113581800E+01  4.415202141E+00
1.114239363E+01  5.230235100E+00
1.114896925E+01  6.622065544E+00
1.115554487E+01  7.479864597E+00
1.116212050E+01  8.735282898E+00
1.116869612E+01  1.037124157E+01
1.117527174E+01  1.060064125E+01
1.118184737E+01  1.032681179E+01
1.118842299E+01  9.149860382E+00
1.119499861E+01  8.365694046E+00
1.120157424E+01  8.822954178E+00
1.120814986E+01  8.834148407E+00
1.121472548E+01  7.800651073E+00
1.122130111E+01  8.700495720E+00
1.122787673E+01  1.004882526E+01
1.123445235E+01  1.043597507E+01
1.124102797E+01  9.382946968E+00
1.124760360E+01  8.965427399E+00
1.125417922E+01  1.046320343E+01
1.126075484E+01  1.228399181E+01
1.126733047E+01  1.195757866E+01
1.127390609E+01  1.061042976E+01
1.128048171E+01  8.905142784E+00
1.128705734E+01  9.679117203E+00
1.129363296E+01  1.022092724E+01
1.130020858E+01  1.088848019E+01
1.130678421E+01  1.143665695E+01
1.131335983E+01  1.004172516E+01
1.131993545E+01  8.064519882E+00
1.132651108E+01  6.797519207E+00
1.133308670E+01  6.566891670E+00
1.133966232E+01  6.761794567E+00
1.134623795E+01  8.561911583E+00
1.135281357E+01  8.999955177E+00
1.135938919E+01  8.750727654E+00
1.136596482E+01  8.741471291E+00
1.137254044E+01  8.043962479E+00
1.137911606E+01  8.421872139E+00
1.138569169E+01  8.445999146E+00
1.139226731E+01  7.570934772E+00
1.139884293E+01  7.172654629E+00
1.140541856E+01  8.086122513E+00
1.141199418E+01  1.015948486E+01
1.141856980E+01  1.224284267E+01
1.142514543E+01  1.261842728E+01
1.143172105E+01  1.261680984E+01
1.143829667E+01  1.332539845E+01
1.144487230E+01  1.256060791E+01
1.145144792E+01  1.206219101E+01
1.145802354E+01  1.038924026E+01
1.146459917E+01  9.828387260E+00
1.147117479E+01  1.127563858E+01
1.147775041E+01  1.316313553E+01
1.148432604E+01  1.527751350E+01
1.149090166E+01  1.615540504E+01
1.149747728E+01  1.705268669E+01
1.150405291E+01  1.543226433E+01
1.151062853E+01  1.546358585E+01
1.151720415E+01  1.558075237E+01
1.152377978E+01  1.682870102E+01
1.153035540E+01  1.920989227E+01
1.153693102E+01  2.042697906E+01
1.154350665E+01  2.130126953E+01
1.155008227E+01  2.154225540E+01
1.155665789E+01  2.150054169E+01
1.156323351E+01  2.255797958E+01
1.156980914E+01  2.452709007E+01
1.157638476E+01  2.714031219E+01
1.158296038E+01  2.893770218E+01
1.158953601E+01  2.922787094E+01
1.159611163E+01  3.064804268E+01
1.160268725E+01  3.204735565E+01
1.160926288E+01  3.470854187E+01
1.161583850E+01  3.468288040E+01
1.162241412E+01  3.567107391E+01
1.162898975E+01  3.681522369E+01
1.163556537E+01  3.805186844E+01
1.164214099E+01  3.734488678E+01
1.164871662E+01  3.624457932E+01
1.165529224E+01  3.399070740E+01
1.166186786E+01  3.113845253E+01
1.166844349E+01  2.864388084E+01
1.167501911E+01  2.703727341E+01
1.168159473E+01  2.540457344E+01
1.168817036E+01  2.373064995E+01
1.169474598E+01  2.420008278E+01
1.170132160E+01  2.362342072E+01
1.170789723E+01  2.191375542E+01
1.171447285E+01  2.128984070E+01
1.172104847E+01  2.065988350E+01
1.172762410E+01  1.890035057E+01
1.173419972E+01  1.659034920E+01
1.174077534E+01  1.625819969E+01
1.174735097E+01  1.503378868E+01
1.175392659E+01  1.517590714E+01
1.176050221E+01  1.624608231E+01
1.176707784E+01  1.714861298E+01
1.177365346E+01  1.718818855E+01
1.178022908E+01  1.586139774E+01
1.178680471E+01  1.670974541E+01
1.179338033E+01  1.631673241E+01
1.179995595E+01  1.634349632E+01
1.180653158E+01  1.680957413E+01
1.181310720E+01  1.661389732E+01
1.181968282E+01  1.592883778E+01
1.182625845E+01  1.540039730E+01
1.183283407E+01  1.561110497E+01
1.183940969E+01  1.585686779E+01
1.184598532E+01  1.571142864E+01
1.185256094E+01  1.497508907E+01
1.185913656E+01  1.449210167E+01
1.186571219E+01  1.482839775E+01
1.187228781E+01  1.378184223E+01
1.187886343E+01  1.241983318E+01
1.188543906E+01  1.094014072E+01
1.189201468E+01  1.044483280E+01
1.189859030E+01  1.072396564E+01
1.190516592E+01  9.066133499E+00
1.191174155E+01  8.546061516E+00
1.191831717E+01  9.499708176E+00
1.192489279E+01  1.072347927E+01
1.193146842E+01  1.183946800E+01
1.193804404E+01  1.180619240E+01
1.194461966E+01  1.269154453E+01
1.195119529E+01  1.366888618E+01
1.195777091E+01  1.443355370E+01
1.196434653E+01  1.486203480E+01
1.197092216E+01  1.395239830E+01
1.197749778E+01  1.349226475E+01
1.198407340E+01  1.342501545E+01
1.199064903E+01  1.508270550E+01
1.199722465E+01  1.468410587E+01
1.200380027E+01  1.494798851E+01
1.201037590E+01  1.235630894E+01
1.201695152E+01  1.174746513E+01
1.202352714E+01  1.165712166E+01
1.203010277E+01  1.308236980E+01
1.203667839E+01  1.315311050E+01
1.204325401E+01  1.295188046E+01
1.204982964E+01  1.257635307E+01
1.205640526E+01  1.218426037E+01
1.206298088E+01  1.210716057E+01
1.206955651E+01  1.154672718E+01
1.207613213E+01  1.105522060E+01
1.208270775E+01  1.195980263E+01
1.208928338E+01  1.315794563E+01
1.209585900E+01  1.506421185E+01
1.210243462E+01  1.572158051E+01
1.210901025E+01  1.592693615E+01
1.211558587E+01  1.498644066E+01
1.212216149E+01  1.422285461E+01
1.212873712E+01  1.303218269E+01
1.213531274E+01  1.301599503E+01
1.214188836E+01  1.317039108E+01
1.214846399E+01  1.368238926E+01
1.215503961E+01  1.322240639E+01
1.216161523E+01  1.183488178E+01
1.216819086E+01  1.141825771E+01
1.217476648E+01  1.259070396E+01
1.218134210E+01  1.391765594E+01
1.218791773E+01  1.395527267E+01
1.219449335E+01  1.346869564E+01
1.220106897E+01  1.398381138E+01
1.220764460E+01  1.469300747E+01
1.221422022E+01  1.538193703E+01
1.222079584E+01  1.493146610E+01
1.222737146E+01  1.431279469E+01
1.223394709E+01  1.239165401E+01
1.224052271E+01  1.139266300E+01
1.224709833E+01  1.017178822E+01
1.225367396E+01  1.002738190E+01
1.226024958E+01  1.038328362E+01
1.226682520E+01  1.113208294E+01
1.227340083E+01  1.223863888E+01
1.227997645E+01  1.250081635E+01
1.228655207E+01  1.331364918E+01
1.229312770E+01  1.234707737E+01
1.229970332E+01  1.099125290E+01
1.230627894E+01  1.136631203E+01
1.231285457E+01  1.279844379E+01
1.231943019E+01  1.212213993E+01
1.232600581E+01  1.108205032E+01
1.233258144E+01  1.110153580E+01
1.233915706E+01  1.097407246E+01
1.234573268E+01  1.208298302E+01
1.235230831E+01  1.439362240E+01
1.235888393E+01  1.668384552E+01
1.236545955E+01  1.718511772E+01
1.237203518E+01  1.634961128E+01
1.237861080E+01  1.424082565E+01
1.238518642E+01  1.427528763E+01
1.239176205E+01  1.477137852E+01
1.239833767E+01  1.425548840E+01
1.240491329E+01  1.373740578E+01
1.241148892E+01  1.427379036E+01
1.241806454E+01  1.491300583E+01
1.242464016E+01  1.728446579E+01
1.243121579E+01  1.869190407E+01
1.243779141E+01  1.976912498E+01
1.244436703E+01  2.014017296E+01
1.245094266E+01  2.024061203E+01
1.245751828E+01  2.117495346E+01
1.246409390E+01  2.190121841E+01
1.247066953E+01  2.376024437E+01
1.247724515E+01  2.581600952E+01
1.248382077E+01  2.735319328E+01
1.249039640E+01  2.737474251E+01
1.249697202E+01  2.848076057E+01
1.250354764E+01  2.993298149E+01
1.251012327E+01  3.142330551E+01
1.251669889E+01  3.325887299E+01
1.252327451E+01  3.570775223E+01
1.252985014E+01  3.676604843E+01
1.253642576E+01  3.657976532E+01
1.254300138E+01  3.550974274E+01
1.254957700E+01  3.594319534E+01
1.255615263E+01  3.597436523E+01
1.256272825E+01  3.634885788E+01
1.256930387E+01  3.740310669E+01
1.257587950E+01  3.653945160E+01
1.258245512E+01  3.616317368E+01
1.258903074E+01  3.433432770E+01
1.259560637E+01  3.485223770E+01
1.260218199E+01  3.471982956E+01
1.260875761E+01  3.551865005E+01
1.261533324E+01  3.579118347E+01
1.262190886E+01  3.737141418E+01
1.262848448E+01  3.863727188E+01
1.263506011E+01  3.951795959E+01
1.264163573E+01  4.010527802E+01
1.264821135E+01  4.088604736E+01
1.265478698E+01  4.173624420E+01
1.266136260E+01  4.274474716E+01
1.266793822E+01  4.365813828E+01
1.267451385E+01  4.465904236E+01
1.268108947E+01  4.442666245E+01
1.268766509E+01  4.413972092E+01
1.269424072E+01  4.411804962E+01
1.270081634E+01  4.545296478E+01
1.270739196E+01  4.750678253E+01
1.271396759E+01  4.872775269E+01
1.272054321E+01  4.915299606E+01
1.272711883E+01  5.005450058E+01
1.273369446E+01  5.132094955E+01
1.274027008E+01  5.169649124E+01
1.274684570E+01  5.171386337E+01
1.275342133E+01  5.405325317E+01
1.275999695E+01  5.645490646E+01
1.276657257E+01  5.913368607E+01
1.277314820E+01  6.011548615E+01
1.277972382E+01  6.251995087E+01
1.278629944E+01  6.387492752E+01
1.279287507E+01  6.544508362E+01
1.279945069E+01  6.701265717E+01
1.280602631E+01  6.914309692E+01
1.281260194E+01  7.033300018E+01
1.281917756E+01  7.117076111E+01
1.282575318E+01  7.123599243E+01
1.283232881E+01  7.220740509E+01
1.283890443E+01  7.298883057E+01
1.284548005E+01  7.453634644E+01
1.285205568E+01  7.407113647E+01
1.285863130E+01  7.297018433E+01
1.286520692E+01  7.263485718E+01
1.287178255E+01  7.190697479E+01
1.287835817E+01  7.032852173E+01
1.288493379E+01  6.927793884E+01
1.289150941E+01  6.948130798E+01
1.289808504E+01  6.960415649E+01
1.290466066E+01  6.936670685E+01
1.291123628E+01  6.841349792E+01
1.291781191E+01  6.739736176E+01
1.292438753E+01  6.638519287E+01
1.293096315E+01  6.458940887E+01
1.293753878E+01  6.119212723E+01
1.294411440E+01  5.839842987E+01
1.295069002E+01  5.535089111E+01
1.295726565E+01  5.214277649E+01
1.296384127E+01  4.959585571E+01
1.297041689E+01  4.709342575E+01
1.297699252E+01  4.547044754E+01
1.298356814E+01  4.469273758E+01
1.299014376E+01  4.286721802E+01
1.299671939E+01  4.177611542E+01
1.300329501E+01  4.047606277E+01
1.300987063E+01  3.864479065E+01
1.301644626E+01  3.684185791E+01
1.302302188E+01  3.522742081E+01
1.302959750E+01  3.277217102E+01
1.303617313E+01  2.948489761E+01
1.304274875E+01  2.755260277E+01
1.304932437E+01  2.643182564E+01
1.305590000E+01  2.591748238E+01
1.306247562E+01  2.361845589E+01
1.306905124E+01  2.156403732E+01
1.307562687E+01  1.955012512E+01
1.308220249E+01  2.060503387E+01
1.308877811E+01  2.213892174E+01
1.309535374E+01  2.419377518E+01
1.310192936E+01  2.417438126E+01
1.310850498E+01  2.148943329E+01
1.311508061E+01  1.795924568E+01
1.312165623E+01  1.588410950E+01
1.312823185E+01  1.577135563E+01
1.313480748E+01  1.707215881E+01
1.314138310E+01  1.822695541E+01
1.314795872E+01  1.933682251E+01
1.315453435E+01  2.040372086E+01
1.316110997E+01  1.969865227E+01
1.316768559E+01  2.031586647E+01
1.317426122E+01  2.030029106E+01
1.318083684E+01  1.951912308E+01
1.318741246E+01  1.959444237E+01
1.319398809E+01  2.001942253E+01
1.320056371E+01  2.007239532E+01
1.320713933E+01  1.894624138E+01
1.321371495E+01  1.984848976E+01
1.322029058E+01  2.277085304E+01
1.322686620E+01  2.373921776E+01
1.323344182E+01  2.386980820E+01
1.324001745E+01  2.419729996E+01
1.324659307E+01  2.590529823E+01
1.325316869E+01  2.834879303E+01
1.325974432E+01  3.118013763E+01
1.326631994E+01  3.291203308E+01
1.327289556E+01  3.489995956E+01
1.327947119E+01  3.593982315E+01
1.328604681E+01  3.727576828E+01
1.329262243E+01  3.820076752E+01
1.329919806E+01  4.089696121E+01
1.330577368E+01  4.356161499E+01
1.331234930E+01  4.439052963E+01
1.331892493E+01  4.627824020E+01
1.332550055E+01  4.823060989E+01
1.333207617E+01  5.176863098E+01
1.333865180E+01  5.597629166E+01
1.334522742E+01  6.138092804E+01
1.335180304E+01  6.763195038E+01
1.335837867E+01  7.475670624E+01
1.336495429E+01  8.193975830E+01
1.337152991E+01  9.031000519E+01
1.337810554E+01  9.793920898E+01
1.338468116E+01  1.066227875E+02
1.339125678E+01  1.157689362E+02
1.339783241E+01  1.263278275E+02
1.340440803E+01  1.375514221E+02
1.341098365E+01  1.502873535E+02
1.341755928E+01  1.640868835E+02
1.342413490E+01  1.790852661E+02
1.343071052E+01  1.940485992E+02
1.343728615E+01  2.097171021E+02
1.344386177E+01  2.224740753E+02
1.345043739E+01  2.351564178E+02
1.345701302E+01  2.479838409E+02
1.346358864E+01  2.564875793E+02
1.347016426E+01  2.596266479E+02
1.347673989E+01  2.559791260E+02
1.348331551E+01  2.457505798E+02
1.348989113E+01  2.292168884E+02
1.349646676E+01  2.113795013E+02
1.350304238E+01  1.910709381E+02
1.350961800E+01  1.726642456E+02
1.351619363E+01  1.550876312E+02
1.352276925E+01  1.401418915E+02
1.352934487E+01  1.251316986E+02
1.353592050E+01  1.126815567E+02
1.354249612E+01  9.966013336E+01
1.354907174E+01  8.985697937E+01
1.355564736E+01  8.134386444E+01
1.356222299E+01  7.497724152E+01
1.356879861E+01  6.969314575E+01
1.357537423E+01  6.388172913E+01
1.358194986E+01  5.797316360E+01
1.358852548E+01  5.451384735E+01
1.359510110E+01  5.062292862E+01
1.360167673E+01  4.723888397E+01
1.360825235E+01  4.227969742E+01
1.361482797E+01  3.763892746E+01
1.362140360E+01  3.396356201E+01
1.362797922E+01  3.149383736E+01
1.363455484E+01  3.050955200E+01
1.364113047E+01  2.975192451E+01
1.364770609E+01  2.758131599E+01
1.365428171E+01  2.634148598E+01
1.366085734E+01  2.557345963E+01
1.366743296E+01  2.395497894E+01
1.367400858E+01  2.285958862E+01
1.368058421E+01  2.334881592E+01
1.368715983E+01  2.403839302E+01
1.369373545E+01  2.354746819E+01
1.370031108E+01  2.312799644E+01
1.370688670E+01  2.126191902E+01
1.371346232E+01  1.989943123E+01
1.372003795E+01  1.817188835E+01
1.372661357E+01  1.586688709E+01
1.373318919E+01  1.548198605E+01
1.373976482E+01  1.529746056E+01
1.374634044E+01  1.587727165E+01
1.375291606E+01  1.601829338E+01
1.375949169E+01  1.568780804E+01
1.376606731E+01  1.739655113E+01
1.377264293E+01  1.863817215E+01
1.377921856E+01  1.945660591E+01
1.378579418E+01  1.963212204E+01
1.379236980E+01  1.945523834E+01
1.379894543E+01  1.891862297E+01
1.380552105E+01  1.909745789E+01
1.381209667E+01  1.860794449E+01
1.381867230E+01  1.779919624E+01
1.382524792E+01  2.001494598E+01
1.383182354E+01  2.199346733E+01
1.383839917E+01  2.325671768E+01
1.384497479E+01  2.321874809E+01
1.385155041E+01  2.318911743E+01
1.385812604E+01  2.519808388E+01
1.386470166E+01  2.901370430E+01
1.387127728E+01  3.059445953E+01
1.387785290E+01  3.032364082E+01
1.388442853E+01  3.050494385E+01
1.389100415E+01  2.977752304E+01
1.389757977E+01  3.083618546E+01
1.390415540E+01  3.311354446E+01
1.391073102E+01  3.610031128E+01
1.391730664E+01  3.737166977E+01
1.392388227E+01  3.770642471E+01
1.393045789E+01  3.717878723E+01
1.393703351E+01  3.903142929E+01
1.394360914E+01  4.135223007E+01
1.395018476E+01  4.259675980E+01
1.395676038E+01  4.253600693E+01
1.396333601E+01  4.398638153E+01
1.396991163E+01  4.515002441E+01
1.397648725E+01  4.620467377E+01
1.398306288E+01  4.633587265E+01
1.398963850E+01  4.832146454E+01
1.399621412E+01  4.968341827E+01
1.400278975E+01  5.026353073E+01
1.400936537E+01  5.268827820E+01
1.401594099E+01  5.354409027E+01
1.402251662E+01  5.433829117E+01
1.402909224E+01  5.461532593E+01
1.403566786E+01  5.425214767E+01
1.404224349E+01  5.492259598E+01
1.404881911E+01  5.562325668E+01
1.405539473E+01  5.473401642E+01
1.406197036E+01  5.383935928E+01
1.406854598E+01  5.363313675E+01
1.407512160E+01  5.412511826E+01
1.408169723E+01  5.288513565E+01
1.408827285E+01  5.173008728E+01
1.409484847E+01  5.074103165E+01
1.410142410E+01  4.976025772E+01
1.410799972E+01  4.876725769E+01
1.411457534E+01  4.853205490E+01
1.412115097E+01  4.729829788E+01
1.412772659E+01  4.560749817E+01
1.413430221E+01  4.440056992E+01
1.414087784E+01  4.378736877E+01
1.414745346E+01  4.284406281E+01
1.415402908E+01  4.225619888E+01
1.416060471E+01  4.089974594E+01
1.416718033E+01  3.881571198E+01
1.417375595E+01  3.642205429E+01
1.418033158E+01  3.490968323E+01
1.418690720E+01  3.415065765E+01
1.419348282E+01  3.342865753E+01
1.420005844E+01  3.337745667E+01
1.420663407E+01  3.375729752E+01
1.421320969E+01  3.410038757E+01
1.421978531E+01  3.437839508E+01
1.422636094E+01  3.232128143E+01
1.423293656E+01  3.068586540E+01
1.423951218E+01  3.093502045E+01
1.424608781E+01  3.169470406E+01
1.425266343E+01  3.175982094E+01
1.425923905E+01  3.155906105E+01
1.426581468E+01  3.217199707E+01
1.427239030E+01  3.550387955E+01
1.427896592E+01  3.597168732E+01
1.428554155E+01  3.523604202E+01
1.429211717E+01  3.413140106E+01
1.429869279E+01  3.153909492E+01
1.430526842E+01  2.980627251E+01
1.431184404E+01  2.913067055E+01
1.431841966E+01  2.926618195E+01
1.432499529E+01  2.850429344E+01
1.433157091E+01  2.821901512E+01
1.433814653E+01  2.835613632E+01
1.434472216E+01  2.866369057E+01
1.435129778E+01  2.707233047E+01
1.435787340E+01  2.607325745E+01
1.436444903E+01  2.489595604E+01
1.437102465E+01  2.483045769E+01
1.437760027E+01  2.490361023E+01
1.438417590E+01  2.536589813E+01
1.439075152E+01  2.412405396E+01
1.439732714E+01  2.346323013E+01
1.440390277E+01  2.425891495E+01
1.441047839E+01  2.465954208E+01
1.441705401E+01  2.538484001E+01
1.442362964E+01  2.454222870E+01
1.443020526E+01  2.406970024E+01
1.443678088E+01  2.403756523E+01
1.444335651E+01  2.208840370E+01
1.444993213E+01  2.103813934E+01
1.445650775E+01  2.108013153E+01
1.446308338E+01  2.219436455E+01
1.446965900E+01  2.361668205E+01
1.447623462E+01  2.452383995E+01
1.448281025E+01  2.612190056E+01
1.448938587E+01  2.815011978E+01
1.449596149E+01  2.910606003E+01
1.450253712E+01  3.005515289E+01
1.450911274E+01  2.914241409E+01
1.451568836E+01  2.780583572E+01
1.452226399E+01  2.645850182E+01
1.452883961E+01  2.604962730E+01
1.453541523E+01  2.656749153E+01
1.454199085E+01  2.746570396E+01
1.454856648E+01  2.660754013E+01
1.455514210E+01  2.474982834E+01
1.456171772E+01  2.303465080E+01
1.456829335E+01  2.132918739E+01
1.457486897E+01  2.019592857E+01
1.458144459E+01  2.062021446E+01
1.458802022E+01  2.177390862E+01
1.459459584E+01  2.227564621E+01
1.460117146E+01  2.261418724E+01
1.460774709E+01  2.277730560E+01
1.461432271E+01  2.313168716E+01
1.462089833E+01  2.355866051E+01
1.462747396E+01  2.363828850E+01
1.463404958E+01  2.421429825E+01
1.464062520E+01  2.383257484E+01
1.464720083E+01  2.373479462E+01
1.465377645E+01  2.256839943E+01
1.466035207E+01  2.166247177E+01
1.466692770E+01  2.249160194E+01
1.467350332E+01  2.424961853E+01
1.468007894E+01  2.493161774E+01
1.468665457E+01  2.411717224E+01
1.469323019E+01  2.349327469E+01
1.469980581E+01  2.340854263E+01
1.470638144E+01  2.445963669E+01
1.471295706E+01  2.443023300E+01
1.471953268E+01  2.428467369E+01
1.472610831E+01  2.363573647E+01
1.473268393E+01  2.292725754E+01
1.473925955E+01  2.287162971E+01
1.474583518E+01  2.343759155E+01
1.475241080E+01  2.211146355E+01
1.475898642E+01  2.126140404E+01
1.476556205E+01  2.029902840E+01
1.477213767E+01  1.890353203E+01
1.477871329E+01  1.840206146E+01
1.478528892E+01  1.900311279E+01
1.479186454E+01  2.074526024E+01
1.479844016E+01  2.246151733E+01
1.480501579E+01  2.316067314E+01
1.481159141E+01  2.312398338E+01
1.481816703E+01  2.239491463E+01
1.482474266E+01  2.258528709E+01
1.483131828E+01  2.320292664E+01
1.483789390E+01  2.389139366E+01
1.484446953E+01  2.310626602E+01
1.485104515E+01  2.416786957E+01
1.485762077E+01  2.489213371E+01
1.486419639E+01  2.644020271E+01
1.487077202E+01  2.672224617E+01
1.487734764E+01  2.545702744E+01
1.488392326E+01  2.395168686E+01
1.489049889E+01  2.377508736E+01
1.489707451E+01  2.426220131E+01
1.490365013E+01  2.393354988E+01
1.491022576E+01  2.094978905E+01
1.491680138E+01  1.920009041E+01
1.492337700E+01  1.925624084E+01
1.492995263E+01  2.082723618E+01
1.493652825E+01  2.164550781E+01
1.494310387E+01  2.084778023E+01
1.494967950E+01  2.140379143E+01
1.495625512E+01  1.962897110E+01
1.496283074E+01  1.976795959E+01
1.496940637E+01  2.085737610E+01
1.497598199E+01  2.301783371E+01
1.498255761E+01  2.316192818E+01
1.498913324E+01  2.263927269E+01
1.499570886E+01  2.232339859E+01
1.500228448E+01  2.085786057E+01
1.500886011E+01  1.908592033E+01
1.501543573E+01  1.771850967E+01
1.502201135E+01  1.658814430E+01
1.502858698E+01  1.606786728E+01
1.503516260E+01  1.559956932E+01
1.504173822E+01  1.545619297E+01
1.504831385E+01  1.537894535E+01
1.505488947E+01  1.581996727E+01
1.506146509E+01  1.610005569E+01
1.506804072E+01  1.582369518E+01
1.507461634E+01  1.608854103E+01
1.508119196E+01  1.592681122E+01
1.508776759E+01  1.605383682E+01
1.509434321E+01  1.676893044E+01
1.510091883E+01  1.767462921E+01
1.510749446E+01  1.712200546E+01
1.511407008E+01  1.716574860E+01
1.512064570E+01  1.828193283E+01
1.512722133E+01  1.946568108E+01
1.513379695E+01  1.900849915E+01
1.514037257E+01  1.895580673E+01
1.514694820E+01  1.769627953E+01
1.515352382E+01  1.721576881E+01
1.516009944E+01  1.599036217E+01
1.516667507E+01  1.546294022E+01
1.517325069E+01  1.559982967E+01
1.517982631E+01  1.641959953E+01
1.518640194E+01  1.727920532E+01
1.519297756E+01  1.713667107E+01
1.519955318E+01  1.513069153E+01
1.520612880E+01  1.313580322E+01
1.521270443E+01  1.116472530E+01
1.521928005E+01  1.147334290E+01
1.522585567E+01  1.178336334E+01
1.523243130E+01  1.131503010E+01
1.523900692E+01  1.042969990E+01
1.524558254E+01  8.740196228E+00
1.525215817E+01  7.593229294E+00
1.525873379E+01  8.918028831E+00
1.526530941E+01  1.142556477E+01
1.527188504E+01  1.411977482E+01
1.527846066E+01  1.355732918E+01
1.528503628E+01  1.297410107E+01
1.529161191E+01  1.162890911E+01
1.529818753E+01  9.403618813E+00
1.530476315E+01  7.360272408E+00
1.531133878E+01  7.850948811E+00
1.531791440E+01  8.332218170E+00
1.532449002E+01  9.403716087E+00
1.533106565E+01  9.891640663E+00
1.533764127E+01  1.076818275E+01
1.534421689E+01  1.065152836E+01
1.535079252E+01  1.032148361E+01
1.535736814E+01  1.001879120E+01
1.536394376E+01  1.064776516E+01
1.537051939E+01  1.101213360E+01
1.537709501E+01  1.092978096E+01
1.538367063E+01  1.051351452E+01
1.539024626E+01  1.174967384E+01
1.539682188E+01  1.391512394E+01
1.540339750E+01  1.474620247E+01
1.540997313E+01  1.640160942E+01
1.541654875E+01  1.741064644E+01
1.542312437E+01  1.702478600E+01
1.542970000E+01  1.591297913E+01
1.543627562E+01  1.653567696E+01
1.544285124E+01  1.692755127E+01
1.544942687E+01  1.717747307E+01
1.545600249E+01  1.614872932E+01
1.546257811E+01  1.625440598E+01
1.546915374E+01  1.685632324E+01
1.547572936E+01  1.944569778E+01
1.548230498E+01  1.938727951E+01
1.548888061E+01  1.968595314E+01
1.549545623E+01  1.954387665E+01
1.550203185E+01  1.969933891E+01
1.550860748E+01  2.027050781E+01
1.551518310E+01  2.208405685E+01
1.552175872E+01  2.553061867E+01
1.552833434E+01  2.699057770E+01
1.553490997E+01  2.792781639E+01
1.554148559E+01  3.062750626E+01
1.554806121E+01  3.546759415E+01
1.555463684E+01  4.104281998E+01
1.556121246E+01  4.647577286E+01
1.556778808E+01  4.848717117E+01
1.557436371E+01  5.356922531E+01
1.558093933E+01  5.423954391E+01
1.558751495E+01  5.986875534E+01
1.559409058E+01  6.238315964E+01
1.560066620E+01  6.785895538E+01
1.560724182E+01  6.851786041E+01
1.561381745E+01  6.970364380E+01
1.562039307E+01  7.017953491E+01
1.562696869E+01  6.680395508E+01
1.563354432E+01  6.550125885E+01
1.564011994E+01  6.103515244E+01
1.564669556E+01  6.202822495E+01
1.565327119E+01  6.356987000E+01
1.565984681E+01  6.702291107E+01
1.566642243E+01  7.254167938E+01
1.567299806E+01  7.889183044E+01
1.567957368E+01  8.504019165E+01
1.568614930E+01  9.097799683E+01
1.569272493E+01  9.797091675E+01
1.569930055E+01  1.060702362E+02
1.570587617E+01  1.148287125E+02
1.571245180E+01  1.226936417E+02
1.571902742E+01  1.313666992E+02
1.572560304E+01  1.419162750E+02
1.573217867E+01  1.550030212E+02
1.573875429E+01  1.706889648E+02
1.574532991E+01  1.875419922E+02
1.575190554E+01  2.066265717E+02
1.575848116E+01  2.262190704E+02
1.576505678E+01  2.466295471E+02
1.577163241E+01  2.685167236E+02
1.577820803E+01  2.901047058E+02
1.578478365E+01  3.109540405E+02
1.579135928E+01  3.299319153E+02
1.579793490E+01  3.424050293E+02
1.580451052E+01  3.466956482E+02
1.581108615E+01  3.442632141E+02
1.581766177E+01  3.336707458E+02
1.582423739E+01  3.193903809E+02
1.583081302E+01  2.990906067E+02
1.583738864E+01  2.762947693E+02
1.584396426E+01  2.518339996E+02
1.585053988E+01  2.306345215E+02
1.585711551E+01  2.103276825E+02
1.586369113E+01  1.922323151E+02
1.587026675E+01  1.756946106E+02
1.587684238E+01  1.621476593E+02
1.588341800E+01  1.494659882E+02
1.588999362E+01  1.371847229E+02
1.589656925E+01  1.279430466E+02
1.590314487E+01  1.193395844E+02
1.590972049E+01  1.102210007E+02
1.591629612E+01  1.039330215E+02
1.592287174E+01  9.812115479E+01
1.592944736E+01  9.377124786E+01
1.593602299E+01  8.924169922E+01
1.594259861E+01  8.316191864E+01
1.594917423E+01  7.819940948E+01
1.595574986E+01  7.261296082E+01
1.596232548E+01  6.870288849E+01
1.596890110E+01  6.572799683E+01
1.597547673E+01  6.262141800E+01
1.598205235E+01  5.915464783E+01
1.598862797E+01  5.698395920E+01
1.599520360E+01  5.448828506E+01
1.600177922E+01  5.154850769E+01
1.600835484E+01  5.023056412E+01
1.601493047E+01  4.892803955E+01
1.602150609E+01  4.633040619E+01
1.602808171E+01  4.479755402E+01
1.603465734E+01  4.321963882E+01
1.604123296E+01  4.229981613E+01
1.604780858E+01  4.185255051E+01
1.605438421E+01  4.021039200E+01
1.606095983E+01  3.988164902E+01
1.606753545E+01  4.030140686E+01
1.607411108E+01  3.977485275E+01
1.608068670E+01  3.826000595E+01
1.608726232E+01  3.736771774E+01
1.609383795E+01  3.529819489E+01
1.610041357E+01  3.388982010E+01
1.610698919E+01  3.339943314E+01
1.611356482E+01  3.462000275E+01
1.612014044E+01  3.574488831E+01
1.612671606E+01  3.517887115E+01
1.613329169E+01  3.445807266E+01
1.613986731E+01  3.247457504E+01
1.614644293E+01  2.996470070E+01
1.615301856E+01  2.836739349E+01
1.615959418E+01  2.797414398E+01
1.616616980E+01  2.800758934E+01
1.617274543E+01  2.884515381E+01
1.617932105E+01  2.795849419E+01
1.618589667E+01  2.772014809E+01
1.619247229E+01  2.653194618E+01
1.619904792E+01  2.570734406E+01
1.620562354E+01  2.412570953E+01
1.621219916E+01  2.283487320E+01
1.621877479E+01  2.206234741E+01
1.622535041E+01  2.127148819E+01
1.623192603E+01  2.189098740E+01
1.623850166E+01  2.246476364E+01
1.624507728E+01  2.239368057E+01
1.625165290E+01  2.195847893E+01
1.625822853E+01  2.082906342E+01
1.626480415E+01  1.968315697E+01
1.627137977E+01  1.887133026E+01
1.627795540E+01  1.948293114E+01
1.628453102E+01  1.912634850E+01
1.629110664E+01  2.029278946E+01
1.629768227E+01  2.192365646E+01
1.630425789E+01  2.312148857E+01
1.631083351E+01  2.421002197E+01
1.631740914E+01  2.585820198E+01
1.632398476E+01  2.810900879E+01
1.633056038E+01  3.007963943E+01
1.633713601E+01  2.991414452E+01
1.634371163E+01  3.080492592E+01
1.635028725E+01  3.098539162E+01
1.635686288E+01  3.137157822E+01
1.636343850E+01  3.117785645E+01
1.637001412E+01  3.340668488E+01
1.637658975E+01  3.498337936E+01
1.638316537E+01  3.762670898E+01
1.638974099E+01  3.984059143E+01
1.639631662E+01  4.305376434E+01
1.640289224E+01  4.611047745E+01
1.640946786E+01  4.897999191E+01
1.641604349E+01  5.192794037E+01
1.642261911E+01  5.385863876E+01
1.642919473E+01  5.631604004E+01
1.643577036E+01  6.000669861E+01
1.644234598E+01  6.436128235E+01
1.644892160E+01  6.768984985E+01
1.645549723E+01  7.203391266E+01
1.646207285E+01  7.581241608E+01
1.646864847E+01  8.062495422E+01
1.647522410E+01  8.524789429E+01
1.648179972E+01  8.808893585E+01
1.648837534E+01  9.228965759E+01
1.649495097E+01  9.550533295E+01
1.650152659E+01  9.894296265E+01
1.650810221E+01  1.007660980E+02
1.651467783E+01  1.020459976E+02
1.652125346E+01  1.008173141E+02
1.652782908E+01  9.825579071E+01
1.653440470E+01  9.452106476E+01
1.654098033E+01  8.965997314E+01
1.654755595E+01  8.424964142E+01
1.655413157E+01  7.927245331E+01
1.656070720E+01  7.287387085E+01
1.656728282E+01  6.856803131E+01
1.657385844E+01  6.449845886E+01
1.658043407E+01  5.961237335E+01
1.658700969E+01  5.562264252E+01
1.659358531E+01  5.096233749E+01
1.660016094E+01  4.727156830E+01
1.660673656E+01  4.470606613E+01
1.661331218E+01  4.228290558E+01
1.661988781E+01  4.098252869E+01
1.662646343E+01  3.846898270E+01
1.663303905E+01  3.661969757E+01
1.663961468E+01  3.368611908E+01
1.664619030E+01  3.332595825E+01
1.665276592E+01  3.342202759E+01
1.665934155E+01  3.208808899E+01
1.666591717E+01  3.166594315E+01
1.667249279E+01  3.213411331E+01
1.667906842E+01  3.239641571E+01
1.668564404E+01  3.118577194E+01
1.669221966E+01  3.018090630E+01
1.669879529E+01  3.037304688E+01
1.670537091E+01  3.210937500E+01
1.671194653E+01  3.193239784E+01
1.671852216E+01  3.172250175E+01
1.672509778E+01  3.298019791E+01
1.673167340E+01  3.446575928E+01
1.673824903E+01  3.676856613E+01
1.674482465E+01  3.842671967E+01
1.675140027E+01  3.852764893E+01
1.675797590E+01  3.894929504E+01
1.676455152E+01  3.880349350E+01
1.677112714E+01  3.901701736E+01
1.677770277E+01  3.864505005E+01
1.678427839E+01  3.938047028E+01
1.679085401E+01  4.002894974E+01
1.679742964E+01  3.972525024E+01
1.680400526E+01  3.967396545E+01
1.681058088E+01  3.931990814E+01
1.681715651E+01  3.894187927E+01
1.682373213E+01  3.920783234E+01
1.683030775E+01  3.926667023E+01
1.683688338E+01  3.987912369E+01
1.684345900E+01  3.852757645E+01
1.685003462E+01  3.750497818E+01
1.685661024E+01  3.602613068E+01
1.686318587E+01  3.528290558E+01
1.686976149E+01  3.504039001E+01
1.687633711E+01  3.489669418E+01
1.688291274E+01  3.496994400E+01
1.688948836E+01  3.543636322E+01
1.689606398E+01  3.650782013E+01
1.690263961E+01  3.670722580E+01
1.690921523E+01  3.575035858E+01
1.691579085E+01  3.404537582E+01
1.692236648E+01  3.394429398E+01
1.692894210E+01  3.507450867E+01
1.693551772E+01  3.685640335E+01
1.694209335E+01  3.759413910E+01
1.694866897E+01  4.006112289E+01
1.695524459E+01  4.189844894E+01
1.696182022E+01  4.333656311E+01
1.696839584E+01  4.529975891E+01
1.697497146E+01  4.582123184E+01
1.698154709E+01  4.652206421E+01
1.698812271E+01  4.633584976E+01
1.699469833E+01  4.572059631E+01
1.700127396E+01  4.514505768E+01
1.700784958E+01  4.606285858E+01
1.701442520E+01  4.692371750E+01
1.702100083E+01  4.704747391E+01
1.702757645E+01  4.638727951E+01
1.703415207E+01  4.592118454E+01
1.704072770E+01  4.549393463E+01
1.704730332E+01  4.502304840E+01
1.705387894E+01  4.361840820E+01
1.706045457E+01  4.256325150E+01
1.706703019E+01  4.233807755E+01
1.707360581E+01  4.164799500E+01
1.708018144E+01  4.120640564E+01
1.708675706E+01  3.997232819E+01
1.709333268E+01  3.925388336E+01
1.709990831E+01  3.815998459E+01
1.710648393E+01  3.842600250E+01
1.711305955E+01  3.973114395E+01
1.711963518E+01  3.975608826E+01
1.712621080E+01  3.963414001E+01
1.713278642E+01  4.083160400E+01
1.713936205E+01  4.159652710E+01
1.714593767E+01  4.195086670E+01
1.715251329E+01  4.137019730E+01
1.715908892E+01  3.949756241E+01
1.716566454E+01  3.869035721E+01
1.717224016E+01  3.781183243E+01
1.717881578E+01  3.589466858E+01
1.718539141E+01  3.417711258E+01
1.719196703E+01  3.311272812E+01
1.719854265E+01  3.233868027E+01
1.720511828E+01  3.251605606E+01
1.721169390E+01  3.253543091E+01
1.721826952E+01  3.227614594E+01
1.722484515E+01  3.133678436E+01
1.723142077E+01  2.990626526E+01
1.723799639E+01  2.861490822E+01
1.724457202E+01  2.750856590E+01
1.725114764E+01  2.719022369E+01
1.725772326E+01  2.724870682E+01
1.726429889E+01  2.715419579E+01
1.727087451E+01  2.632218552E+01
1.727745013E+01  2.507052231E+01
1.728402576E+01  2.361890984E+01
1.729060138E+01  2.334868622E+01
1.729717700E+01  2.357819748E+01
1.730375263E+01  2.364826584E+01
1.731032825E+01  2.300469398E+01
1.731690387E+01  2.308059883E+01
1.732347950E+01  2.290529442E+01
1.733005512E+01  2.092362595E+01
1.733663074E+01  1.844812393E+01
1.734320637E+01  1.782452011E+01
1.734978199E+01  1.831408310E+01
1.735635761E+01  1.796519470E+01
1.736293324E+01  1.726422310E+01
1.736950886E+01  1.559939575E+01
1.737608448E+01  1.595220661E+01
1.738266011E+01  1.886322594E+01
1.738923573E+01  2.067136765E+01
1.739581135E+01  2.009737778E+01
1.740238698E+01  1.947235107E+01
1.740896260E+01  2.014690781E+01
1.741553822E+01  2.091600609E+01
1.742211385E+01  2.053504372E+01
1.742868947E+01  2.046595764E+01
1.743526509E+01  2.016286087E+01
1.744184072E+01  1.972684288E+01
1.744841634E+01  1.927020454E+01
1.745499196E+01  1.883151817E+01
1.746156759E+01  1.725403214E+01
1.746814321E+01  1.640589142E+01
1.747471883E+01  1.618111038E+01
1.748129446E+01  1.661139679E+01
1.748787008E+01  1.673284149E+01
1.749444570E+01  1.707860374E+01
1.750102132E+01  1.778828430E+01
1.750759695E+01  1.856348610E+01
1.751417257E+01  1.816391945E+01
1.752074819E+01  1.800602913E+01
1.752732382E+01  1.674405479E+01
1.753389944E+01  1.541504288E+01
1.754047506E+01  1.536610603E+01
1.754705069E+01  1.531593704E+01
1.755362631E+01  1.665071487E+01
1.756020193E+01  1.771267509E+01
1.756677756E+01  1.938605690E+01
1.757335318E+01  2.026701355E+01
1.757992880E+01  2.002104378E+01
1.758650443E+01  1.930437660E+01
1.759308005E+01  1.790362358E+01
1.759965567E+01  1.732171059E+01
1.760623130E+01  1.813090515E+01
1.761280692E+01  1.872429276E+01
1.761938254E+01  1.919222641E+01
1.762595817E+01  2.077936745E+01
1.763253379E+01  2.133389854E+01
1.763910941E+01  2.065225601E+01
1.764568504E+01  1.943029213E+01
1.765226066E+01  1.769736099E+01
1.765883628E+01  1.799014854E+01
1.766541191E+01  1.867395401E+01
1.767198753E+01  1.925177383E+01
1.767856315E+01  1.922514343E+01
1.768513878E+01  1.819031906E+01
1.769171440E+01  1.670107460E+01
1.769829002E+01  1.693520927E+01
1.770486565E+01  1.704023361E+01
1.771144127E+01  1.755575180E+01
1.771801689E+01  1.888024139E+01
1.772459252E+01  2.019097900E+01
1.773116814E+01  2.204853821E+01
1.773774376E+01  2.274980545E+01
1.774431939E+01  2.212144470E+01
1.775089501E+01  2.136168861E+01
1.775747063E+01  2.144220161E+01
1.776404626E+01  2.200846100E+01
1.777062188E+01  2.317761421E+01
1.777719750E+01  2.320059204E+01
1.778377313E+01  2.345722008E+01
1.779034875E+01  2.281755066E+01
1.779692437E+01  2.273952484E+01
1.780350000E+01  2.188566399E+01
1.781007562E+01  2.179007149E+01
1.781665124E+01  2.245218086E+01
1.782322687E+01  2.344320297E+01
1.782980249E+01  2.465905952E+01
1.783637811E+01  2.385309792E+01
1.784295373E+01  2.206724167E+01
1.784952936E+01  2.130387878E+01
1.785610498E+01  2.244137383E+01
1.786268060E+01  2.389765739E+01
1.786925623E+01  2.469663048E+01
1.787583185E+01  2.413514900E+01
1.788240747E+01  2.435432625E+01
1.788898310E+01  2.474625969E+01
1.789555872E+01  2.406537056E+01
1.790213434E+01  2.311882210E+01
1.790870997E+01  2.218644905E+01
1.791528559E+01  2.360229492E+01
1.792186121E+01  2.620920563E+01
1.792843684E+01  2.647796249E+01
1.793501246E+01  2.606392479E+01
1.794158808E+01  2.575820351E+01
1.794816371E+01  2.616977692E+01
1.795473933E+01  2.565518761E+01
1.796131495E+01  2.565691376E+01
1.796789058E+01  2.673168945E+01
1.797446620E+01  2.741719437E+01
1.798104182E+01  2.793079376E+01
1.798761745E+01  2.947568130E+01
1.799419307E+01  2.925503731E+01
1.800076869E+01  2.810337639E+01
1.800734432E+01  2.743771935E+01
1.801391994E+01  2.723952675E+01
1.802049556E+01  2.776904488E+01
1.802707119E+01  2.786951637E+01
1.803364681E+01  2.667371941E+01
1.804022243E+01  2.626460648E+01
1.804679806E+01  2.683644676E+01
1.805337368E+01  2.742041016E+01
1.805994930E+01  2.739677620E+01
1.806652493E+01  2.792608643E+01
1.807310055E+01  2.686223984E+01
1.807967617E+01  2.737455177E+01
1.808625180E+01  2.690089989E+01
1.809282742E+01  2.581812286E+01
1.809940304E+01  2.704652023E+01
1.810597867E+01  2.841362953E+01
1.811255429E+01  2.930753899E+01
1.811912991E+01  2.958266640E+01
1.812570554E+01  2.924919891E+01
1.813228116E+01  2.885542870E+01
1.813885678E+01  2.978755760E+01
1.814543241E+01  3.022526741E+01
1.815200803E+01  3.051085281E+01
1.815858365E+01  3.106475830E+01
1.816515927E+01  3.026398849E+01
1.817173490E+01  2.964425850E+01
1.817831052E+01  2.948593330E+01
1.818488614E+01  3.139946747E+01
1.819146177E+01  3.341427612E+01
1.819803739E+01  3.448654175E+01
1.820461301E+01  3.498505020E+01
1.821118864E+01  3.550563812E+01
1.821776426E+01  3.628916550E+01
1.822433988E+01  3.648371124E+01
1.823091551E+01  3.516996384E+01
1.823749113E+01  3.394324493E+01
1.824406675E+01  3.177923393E+01
1.825064238E+01  3.106032372E+01
1.825721800E+01  3.111566925E+01
1.826379362E+01  3.166746140E+01
1.827036925E+01  3.205408096E+01
1.827694487E+01  3.190635490E+01
1.828352049E+01  3.112462616E+01
1.829009612E+01  3.050324631E+01
1.829667174E+01  3.157824326E+01
1.830324736E+01  3.222692871E+01
1.830982299E+01  3.405023956E+01
1.831639861E+01  3.394253540E+01
1.832297423E+01  3.233431625E+01
1.832954986E+01  3.081328964E+01
1.833612548E+01  3.151795006E+01
1.834270110E+01  3.250573730E+01
1.834927673E+01  3.341320419E+01
1.835585235E+01  3.312887573E+01
1.836242797E+01  3.181130409E+01
1.836900360E+01  2.951067734E+01
1.837557922E+01  2.881676102E+01
1.838215484E+01  2.830177116E+01
1.838873047E+01  2.711363983E+01
1.839530609E+01  2.599017906E+01
1.840188171E+01  2.713261414E+01
1.840845734E+01  2.891944885E+01
1.841503296E+01  2.912521362E+01
1.842160858E+01  2.884087563E+01
1.842818421E+01  2.860224915E+01
1.843475983E+01  2.878402901E+01
1.844133545E+01  2.938495445E+01
1.844791108E+01  3.065913391E+01
1.845448670E+01  3.180989456E+01
1.846106232E+01  3.216067123E+01
1.846763795E+01  3.168381500E+01
1.847421357E+01  3.099080276E+01
1.848078919E+01  3.133273506E+01
1.848736482E+01  3.065403557E+01
1.849394044E+01  3.056315041E+01
1.850051606E+01  2.982228851E+01
1.850709168E+01  2.946558762E+01
1.851366731E+01  2.960379791E+01
1.852024293E+01  3.084029770E+01
1.852681855E+01  3.185850716E+01
1.853339418E+01  3.163770103E+01
1.853996980E+01  3.130800247E+01
1.854654542E+01  3.139452934E+01
1.855312105E+01  3.126955414E+01
1.855969667E+01  3.086588860E+01
1.856627229E+01  3.184828186E+01
1.857284792E+01  3.346743393E+01
1.857942354E+01  3.410248947E+01
1.858599916E+01  3.319610596E+01
1.859257479E+01  3.193610001E+01
1.859915041E+01  3.119637299E+01
1.860572603E+01  3.072149086E+01
1.861230166E+01  2.960422516E+01
1.861887728E+01  2.845352364E+01
1.862545290E+01  2.803220558E+01
1.863202853E+01  2.754991913E+01
1.863860415E+01  2.716266441E+01
1.864517977E+01  2.644884300E+01
1.865175540E+01  2.527546310E+01
1.865833102E+01  2.544168472E+01
1.866490664E+01  2.651083755E+01
1.867148227E+01  2.706137657E+01
1.867805789E+01  2.840073967E+01
1.868463351E+01  3.055312157E+01
1.869120914E+01  3.011883926E+01
1.869778476E+01  2.775380707E+01
1.870436038E+01  2.648788834E+01
1.871093601E+01  2.622000122E+01
1.871751163E+01  2.736655998E+01
1.872408725E+01  2.926283264E+01
1.873066288E+01  3.113853455E+01
1.873723850E+01  3.290542984E+01
1.874381412E+01  3.335120392E+01
1.875038975E+01  3.305351257E+01
1.875696537E+01  3.311831284E+01
1.876354099E+01  3.167400551E+01
1.877011662E+01  2.985388184E+01
1.877669224E+01  3.002808571E+01
1.878326786E+01  3.037345123E+01
1.878984349E+01  3.065185547E+01
1.879641911E+01  3.121950531E+01
1.880299473E+01  3.198496819E+01
1.880957036E+01  3.089159393E+01
1.881614598E+01  2.986235619E+01
1.882272160E+01  3.045462608E+01
1.882929722E+01  3.072003365E+01
1.883587285E+01  3.020933533E+01
1.884244847E+01  3.035324860E+01
1.884902409E+01  2.982083511E+01
1.885559972E+01  2.887199593E+01
1.886217534E+01  2.834572601E+01
1.886875096E+01  2.708683968E+01
1.887532659E+01  2.697619629E+01
1.888190221E+01  2.702052689E+01
1.888847783E+01  2.551547623E+01
1.889505346E+01  2.512273598E+01
1.890162908E+01  2.568887520E+01
1.890820470E+01  2.595724869E+01
1.891478033E+01  2.674817657E+01
1.892135595E+01  2.604978371E+01
1.892793157E+01  2.511323738E+01
1.893450720E+01  2.601333046E+01
1.894108282E+01  2.592587852E+01
1.894765844E+01  2.564729500E+01
1.895423407E+01  2.575823021E+01
1.896080969E+01  2.534091187E+01
1.896738531E+01  2.529462624E+01
1.897396094E+01  2.472396088E+01
1.898053656E+01  2.277086449E+01
1.898711218E+01  2.205998421E+01
1.899368781E+01  2.200385857E+01
1.900026343E+01  2.299528122E+01
1.900683905E+01  2.482914734E+01
1.901341468E+01  2.714136696E+01
1.901999030E+01  2.938242912E+01
1.902656592E+01  3.214104843E+01
1.903314155E+01  3.459622192E+01
1.903971717E+01  3.733499527E+01
1.904629279E+01  4.013068008E+01
1.905286842E+01  4.300284958E+01
1.905944404E+01  4.590376663E+01
1.906601966E+01  4.848640823E+01
1.907259529E+01  5.231834030E+01
1.907917091E+01  5.640807724E+01
1.908574653E+01  5.834529877E+01
1.909232216E+01  5.735026932E+01
1.909889778E+01  5.435841751E+01
1.910547340E+01  5.090723801E+01
1.911204903E+01  4.810961151E+01
1.911862465E+01  4.512857819E+01
1.912520027E+01  4.207693481E+01
1.913177590E+01  4.013357162E+01
1.913835152E+01  3.708557892E+01
1.914492714E+01  3.366467667E+01
1.915150276E+01  3.036946297E+01
1.915807839E+01  2.619917107E+01
1.916465401E+01  2.379946899E+01
1.917122963E+01  2.036307526E+01
1.917780526E+01  1.736771202E+01
1.918438088E+01  1.498787212E+01
1.919095650E+01  1.371848774E+01
1.919753213E+01  1.443127823E+01
1.920410775E+01  1.492188358E+01
1.921068337E+01  1.448009205E+01
1.921725900E+01  1.398949909E+01
1.922383462E+01  1.251954460E+01
1.923041024E+01  1.214868069E+01
1.923698587E+01  1.191905117E+01
1.924356149E+01  1.109256458E+01
1.925013711E+01  9.511992455E+00
1.925671274E+01  6.769662857E+00
1.926328836E+01  3.785671711E+00
1.926986398E+01  1.032333493E+00
1.927643961E+01  3.368903399E-01
1.928301523E+01  3.581082821E-01
1.928959085E+01  1.203038216E+00
1.929616648E+01  1.245983958E+00
1.930274210E+01  1.297247767E+00
1.930931772E+01  1.621848106E+00
1.931589335E+01  1.484263539E+00
1.932246897E+01  2.161433220E+00
1.932904459E+01  2.126517534E+00
1.933562022E+01  1.507743716E+00
1.934219584E+01  1.041786432E+00
1.934877146E+01  1.173559189E+00
1.935534709E+01  9.134918451E-01
1.936192271E+01  -6.435020566E-01
1.936849833E+01  -1.697865248E+00
1.937507396E+01  -1.916368127E+00
1.938164958E+01  -6.562952399E-01
1.938822520E+01  1.219330668E+00
1.939480083E+01  1.312727213E+00
1.940137645E+01  9.834724665E-01
1.940795207E+01  3.857787848E-01
1.941452770E+01  -4.870234132E-01
1.942110332E+01  -7.934357524E-01
1.942767894E+01  -6.944426298E-01
1.943425457E+01  -4.391185641E-01
1.944083019E+01  6.816604733E-01
1.944740581E+01  4.314473569E-01
1.945398144E+01  5.364839435E-01
1.946055706E+01  -3.870392144E-01
1.946713268E+01  -4.000792205E-01
1.947370831E+01  -2.978676558E-01
1.948028393E+01  7.492788434E-01
1.948685955E+01  -3.554501235E-01
1.949343517E+01  5.193370953E-02
