839.97719,4785,
841.18816,4762,
842.39891,4764,
843.60944,4777,
844.81975,4792,
846.02984,4798,
847.23971,4824,
848.44936,4891,
849.65879,4871,
850.868,4831,
852.07699,4789,
853.28576,4800,
854.49431,4784,
855.70264,4783,
856.91075,4799,
858.11864,4769,
859.32631,4785,
860.53376,4787,
861.741,4802,
862.94801,4783,
864.1548,4790,
865.36137,4773,
866.56772,4791,
867.77385,4776,
868.97976,4798,
870.18545,4845,
871.39092,4890,
872.59617,4901,
873.8012,4828,
875.00601,4768,
876.2106,4780,
877.41497,4783,
878.61913,4785,
879.82306,4782,
881.02677,4767,
882.23026,4774,
883.43353,4788,
884.63658,4783,
885.83941,4772,
887.04202,4780,
888.24441,4770,
889.44658,4784,
890.64854,4772,
891.85027,4787,
893.05178,4786,
894.25307,4773,
895.45414,4782,
896.65499,4771,
897.85562,4779,
899.05603,4778,
900.25623,4782,
901.4562,4785,
902.65595,4789,
903.85548,4793,
905.05479,4779,
906.25388,4781,
907.45276,4791,
908.65141,4795,
909.84984,4784,
911.04805,4788,
912.24604,4787,
913.44381,4787,
914.64137,4781,
915.8387,4790,
917.03581,4781,
918.2327,4788,
919.42937,4791,
920.62582,4796,
921.82206,4788,
923.01807,4782,
924.21386,4776,
925.40943,4786,
926.60478,4788,
927.79992,4789,
928.99483,4787,
930.18952,4782,
931.38399,4769,
932.57825,4781,
933.77228,4777,
934.96609,4784,
936.15968,4786,
937.35305,4795,
938.54621,4785,
939.73914,4774,
940.93185,4780,
942.12434,4778,
943.31662,4781,
944.50867,4780,
945.7005,4786,
946.89211,4787,
948.08351,4783,
949.27468,4777,
950.46563,4773,
951.65636,4779,
952.84688,4773,
954.03717,4777,
955.22724,4779,
956.41709,4780,
957.60673,4768,
958.79614,4783,
959.98533,4784,
961.17431,4777,
962.36306,4780,
963.55159,4769,
964.7399,4788,
965.928,4779,
967.11587,4795,
968.30352,4782,
969.49096,4786,
970.67817,4782,
971.86516,4784,
973.05194,4780,
974.23849,4786,
975.42482,4794,
976.61094,4797,
977.79683,4773,
978.9825,4774,
980.16795,4805,
981.35319,4803,
982.5382,4787,
983.72299,4799,
984.90757,4798,
986.09192,4782,
987.27606,4787,
988.45997,4799,
989.64366,4790,
990.82714,4787,
992.01039,4807,
993.19342,4789,
994.37624,4784,
995.55883,4786,
996.7412,4778,
997.92336,4805,
999.10529,4786,
1000.287,4777,
1001.4685,4781,
1002.6498,4776,
1003.8308,4784,
1005.0117,4821,
1006.1923,4828,
1007.3727,4811,
1008.5528,4776,
1009.7328,4776,
1010.9125,4776,
1012.092,4783,
1013.2713,4780,
1014.4504,4780,
1015.6293,4777,
1016.8079,4779,
1017.9863,4779,
1019.1645,4771,
1020.3425,4782,
1021.5202,4773,
1022.6978,4781,
1023.8751,4775,
1025.0522,4785,
1026.2291,4783,
1027.4057,4770,
1028.5821,4761,
1029.7584,4774,
1030.9344,4779,
1032.1101,4767,
1033.2857,4784,
1034.461,4781,
1035.6361,4761,
1036.811,4777,
1037.9857,4781,
1039.1602,4774,
1040.3344,4789,
1041.5084,4780,
1042.6822,4768,
1043.8558,4780,
1045.0291,4805,
1046.2023,4808,
1047.3752,4783,
1048.5479,4784,
1049.7203,4794,
1050.8926,4802,
1052.0646,4785,
1053.2365,4783,
1054.408,4798,
1055.5794,4809,
1056.7506,4795,
1057.9215,4788,
1059.0922,4782,
1060.2627,4782,
1061.433,4797,
1062.6031,4799,
1063.7729,4788,
1064.9425,4785,
1066.1119,4787,
1067.2811,4789,
1068.45,4783,
1069.6188,4785,
1070.7873,4790,
1071.9556,4791,
1073.1237,4776,
1074.2915,4791,
1075.4591,4779,
1076.6266,4781,
1077.7938,4788,
1078.9607,4785,
1080.1275,4805,
1081.294,4777,
1082.4603,4774,
1083.6264,4768,
1084.7923,4775,
1085.958,4773,
1087.1234,4771,
1088.2886,4780,
1089.4536,4766,
1090.6184,4791,
1091.7829,4777,
1092.9473,4780,
1094.1114,4784,
1095.2753,4776,
1096.439,4786,
1097.6024,4787,
1098.7657,4778,
1099.9287,4787,
1101.0915,4779,
1102.254,4773,
1103.4164,4775,
1104.5785,4796,
1105.7405,4780,
1106.9022,4785,
1108.0636,4785,
1109.2249,4785,
1110.3859,4784,
1111.5467,4786,
1112.7073,4787,
1113.8677,4779,
1115.0279,4777,
1116.1878,4789,
1117.3475,4799,
1118.507,4790,
1119.6663,4798,
1120.8254,4806,
1121.9842,4786,
1123.1428,4812,
1124.3012,4773,
1125.4594,4798,
1126.6173,4810,
1127.7751,4810,
1128.9326,4794,
1130.0899,4798,
1131.247,4786,
1132.4038,4796,
1133.5605,4788,
1134.7169,4790,
1135.8731,4807,
1137.029,4788,
1138.1848,4790,
1139.3403,4789,
1140.4957,4794,
1141.6508,4792,
1142.8056,4790,
1143.9603,4782,
1145.1147,4792,
1146.2689,4794,
1147.4229,4781,
1148.5767,4787,
1149.7303,4792,
1150.8836,4785,
1152.0367,4787,
1153.1896,4787,
1154.3423,4787,
1155.4948,4784,
1156.647,4767,
1157.799,4779,
1158.9508,4777,
1160.1024,4783,
1161.2538,4781,
1162.4049,4786,
1163.5558,4794,
1164.7065,4775,
1165.857,4782,
1167.0072,4793,
1168.1573,4792,
1169.3071,4785,
1170.4567,4782,
1171.6061,4802,
1172.7552,4786,
1173.9042,4786,
1175.0529,4796,
1176.2014,4791,
1177.3497,4800,
1178.4977,4787,
1179.6456,4806,
1180.7932,4794,
1181.9406,4803,
1183.0878,4814,
1184.2347,4809,
1185.3815,4811,
1186.528,4821,
1187.6743,4815,
1188.8203,4813,
1189.9662,4805,
1191.1118,4815,
1192.2573,4816,
1193.4025,4815,
1194.5474,4812,
1195.6922,4822,
1196.8367,4820,
1197.9811,4808,
1199.1252,4808,
1200.269,4807,
1201.4127,4794,
1202.5561,4809,
1203.6993,4810,
1204.8423,4801,
1205.9851,4789,
1207.1277,4793,
1208.27,4791,
1209.4121,4780,
1210.554,4778,
1211.6957,4798,
1212.8372,4784,
1213.9784,4772,
1215.1194,4783,
1216.2602,4791,
1217.4008,4798,
1218.5412,4791,
1219.6813,4801,
1220.8212,4774,
1221.9609,4793,
1223.1004,4778,
1224.2397,4792,
1225.3787,4805,
1226.5175,4786,
1227.6561,4785,
1228.7945,4790,
1229.9327,4794,
1231.0706,4790,
1232.2083,4774,
1233.3458,4789,
1234.4831,4780,
1235.6202,4797,
1236.757,4797,
1237.8936,4782,
1239.03,4798,
1240.1662,4797,
1241.3022,4797,
1242.4379,4774,
1243.5734,4789,
1244.7087,4799,
1245.8438,4789,
1246.9787,4801,
1248.1133,4793,
1249.2477,4793,
1250.3819,4802,
1251.5159,4792,
1252.6497,4803,
1253.7832,4813,
1254.9165,4791,
1256.0496,4808,
1257.1825,4804,
1258.3152,4820,
1259.4476,4808,
1260.5798,4821,
1261.7118,4812,
1262.8436,4825,
1263.9752,4874,
1265.1065,4987,
1266.2376,5366,
1267.3685,6104,
1268.4992,6334,
1269.6297,5693,
1270.7599,5048,
1271.8899,4856,
1273.0197,4818,
1274.1493,4798,
1275.2787,4813,
1276.4078,4814,
1277.5367,4809,
1278.6654,4802,
1279.7939,4822,
1280.9222,4805,
1282.0502,4806,
1283.178,4820,
1284.3056,4816,
1285.433,4824,
1286.5602,4809,
1287.6871,4821,
1288.8138,4800,
1289.9403,4816,
1291.0666,4817,
1292.1927,4803,
1293.3185,4796,
1294.4441,4831,
1295.5695,4819,
1296.6947,4825,
1297.8197,4833,
1298.9444,4823,
1300.0689,4844,
1301.1932,4856,
1302.3173,4844,
1303.4412,4821,
1304.5648,4846,
1305.6882,4865,
1306.8114,4855,
1307.9344,4874,
1309.0572,4866,
1310.1797,4872,
1311.302,4900,
1312.4241,4906,
1313.546,4923,
1314.6677,4932,
1315.7891,4965,
1316.9104,4974,
1318.0314,5005,
1319.1521,5029,
1320.2727,5041,
1321.393,5079,
1322.5132,5124,
1323.6331,5168,
1324.7527,5246,
1325.8722,5371,
1326.9914,5550,
1328.1105,5794,
1329.2293,6289,
1330.3479,7485,
1331.4662,10272,
1332.5844,15537,
1333.7023,21479,
1334.82,25195,
1335.9375,26172,
1337.0547,25160,
1338.1718,22761,
1339.2886,20230,
1340.4052,18568,
1341.5216,17470,
1342.6377,16837,
1343.7537,16553,
1344.8694,15811,
1345.9849,14876,
1347.1002,13874,
1348.2152,13297,
1349.3301,12877,
1350.4447,12458,
1351.5591,11974,
1352.6733,11260,
1353.7873,10560,
1354.901,10134,
1356.0145,9768,
1357.1278,9527,
1358.2409,9444,
1359.3538,9407,
1360.4664,9239,
1361.5788,8985,
1362.691,8874,
1363.803,8713,
1364.9148,8707,
1366.0263,8364,
1367.1376,8099,
1368.2488,8033,
1369.3596,7920,
1370.4703,7902,
1371.5807,7729,
1372.691,7698,
1373.801,7465,
1374.9107,7367,
1376.0203,7420,
1377.1297,7360,
1378.2388,7347,
1379.3477,7405,
1380.4564,7289,
1381.5648,7147,
1382.6731,7049,
1383.7811,6963,
1384.8889,6861,
1385.9965,6927,
1387.1038,6928,
1388.211,6790,
1389.3179,6777,
1390.4246,6724,
1391.5311,6864,
1392.6374,6853,
1393.7434,6839,
1394.8492,6837,
1395.9548,6760,
1397.0602,6772,
1398.1654,6761,
1399.2703,6693,
1400.375,6732,
1401.4795,6712,
1402.5838,6657,
1403.6879,6663,
1404.7917,6718,
1405.8954,6651,
1406.9988,6535,
1408.1019,6475,
1409.2049,6370,
1410.3077,6255,
1411.4102,6235,
1412.5125,6100,
1413.6146,6058,
1414.7164,6118,
1415.8181,6116,
1416.9195,6089,
1418.0207,6152,
1419.1217,6148,
1420.2225,6196,
1421.323,6176,
1422.4233,6186,
1423.5234,6130,
1424.6233,6115,
1425.723,6037,
1426.8224,5960,
1427.9216,5927,
1429.0206,5828,
1430.1194,5818,
1431.218,5795,
1432.3163,5821,
1433.4145,5897,
1434.5124,5808,
1435.6101,5771,
1436.7075,5830,
1437.8048,5811,
1438.9018,5861,
1439.9986,5787,
1441.0952,5802,
1442.1915,5827,
1443.2877,5865,
1444.3836,5866,
1445.4793,5830,
1446.5748,5777,
1447.6701,5781,
1448.7651,5780,
1449.8599,5779,
1450.9545,5821,
1452.0489,5730,
1453.1431,5691,
1454.237,5683,
1455.3308,5607,
1456.4243,5586,
1457.5175,5507,
1458.6106,5571,
1459.7035,5631,
1460.7961,5644,
1461.8885,5580,
1462.9807,5592,
1464.0726,5599,
1465.1644,5635,
1466.2559,5694,
1467.3472,5653,
1468.4383,5580,
1469.5292,5535,
1470.6198,5487,
1471.7102,5530,
1472.8004,5543,
1473.8904,5524,
1474.9802,5523,
1476.0697,5511,
1477.1591,5494,
1478.2482,5479,
1479.3371,5434,
1480.4257,5394,
1481.5142,5339,
1482.6024,5339,
1483.6904,5386,
1484.7782,5385,
1485.8657,5366,
1486.9531,5400,
1488.0402,5418,
1489.1271,5473,
1490.2138,5492,
1491.3003,5433,
1492.3865,5437,
1493.4725,5425,
1494.5584,5384,
1495.6439,5368,
1496.7293,5404,
1497.8145,5416,
1498.8994,5378,
1499.9841,5343,
1501.0686,5321,
1502.1528,5304,
1503.2369,5307,
1504.3207,5328,
1505.4043,5337,
1506.4877,5360,
1507.5709,5343,
1508.6538,5377,
1509.7365,5367,
1510.819,5322,
1511.9013,5274,
1512.9834,5290,
1514.0652,5267,
1515.1469,5298,
1516.2283,5274,
1517.3095,5287,
1518.3904,5233,
1519.4712,5230,
1520.5517,5285,
1521.632,5316,
1522.7121,5341,
1523.792,5286,
1524.8716,5304,
1525.951,5299,
1527.0302,5267,
1528.1092,5275,
1529.188,5308,
1530.2665,5314,
1531.3449,5351,
1532.423,5293,
1533.5009,5297,
1534.5785,5270,
1535.656,5323,
1536.7332,5344,
1537.8102,5357,
1538.887,5327,
1539.9636,5312,
1541.0399,5307,
1542.116,5263,
1543.192,5255,
1544.2676,5227,
1545.3431,5240,
1546.4184,5219,
1547.4934,5245,
1548.5682,5247,
1549.6428,5211,
1550.7171,5172,
1551.7913,5168,
1552.8652,5177,
1553.9389,5253,
1555.0124,5271,
1556.0857,5287,
1557.1587,5246,
1558.2316,5242,
1559.3042,5275,
1560.3766,5232,
1561.4487,5257,
1562.5207,5236,
1563.5924,5201,
1564.6639,5244,
1565.7352,5224,
1566.8063,5200,
1567.8771,5181,
1568.9477,5200,
1570.0181,5204,
1571.0883,5165,
1572.1583,5207,
1573.228,5204,
1574.2976,5218,
1575.3669,5186,
1576.436,5204,
1577.5048,5211,
1578.5735,5206,
1579.6419,5195,
1580.7101,5197,
1581.7781,5211,
1582.8459,5184,
1583.9134,5173,
1584.9808,5189,
1586.0479,5190,
1587.1148,5229,
1588.1814,5211,
1589.2479,5277,
1590.3141,5233,
1591.3801,5218,
1592.4459,5243,
1593.5115,5218,
1594.5768,5232,
1595.6419,5210,
1596.7068,5175,
1597.7715,5167,
1598.836,5212,
1599.9003,5195,
1600.9643,5177,
1602.0281,5151,
1603.0917,5188,
1604.1551,5182,
1605.2182,5134,
1606.2811,5065,
1607.3438,4984,
1608.4063,4947,
1609.4686,4924,
1610.5306,4857,
1611.5925,4828,
1612.6541,4809,
1613.7155,4815,
1614.7766,4792,
1615.8376,4796,
1616.8983,4801,
1617.9588,4786,
1619.0191,4783,
1620.0792,4785,
1621.139,4774,
1622.1987,4778,
1623.2581,4774,
1624.3173,4773,
1625.3762,4768,
1626.435,4763,
1627.4935,4755,
1628.5518,4772,
1629.6099,4770,
1630.6678,4756,
1631.7254,4776,
1632.7829,4774,
1633.8401,4755,
1634.8971,4767,
1635.9538,4775,
1637.0104,4778,
1638.0667,4758,
1639.1228,4764,
1640.1787,4784,
1641.2344,4778,
1642.2898,4768,
1643.3451,4778,
1644.4001,4776,
1645.4549,4789,
1646.5094,4769,
1647.5638,4773,
1648.6179,4772,
1649.6718,4772,
1650.7255,4763,
1651.779,4752,
1652.8322,4754,
1653.8853,4778,
1654.9381,4776,
1655.9907,4761,
1657.043,4772,
1658.0952,4772,
1659.1471,4780,
1660.1988,4775,
1661.2503,4761,
1662.3016,4771,
1663.3526,4773,
1664.4035,4774,
1665.4541,4773,
1666.5045,4775,
1667.5546,4769,
1668.6046,4781,
1669.6543,4774,
1670.7038,4777,
1671.7531,4775,
1672.8022,4776,
1673.851,4784,
1674.8997,4782,
1675.9481,4777,
1676.9963,4789,
1678.0442,4777,
1679.092,4783,
1680.1395,4785,
1681.1868,4777,
1682.2339,4791,
1683.2808,4772,
1684.3274,4793,
1685.3739,4789,
1686.4201,4795,
1687.4661,4777,
1688.5118,4789,
1689.5574,4789,
1690.6027,4781,
1691.6478,4792,
1692.6927,4785,
1693.7374,4808,
1694.7819,4808,
1695.8261,4799,
1696.8701,4798,
1697.9139,4800,
1698.9575,4792,
1700.0008,4815,
1701.0439,4811,
1702.0869,4817,
1703.1295,4806,
1704.172,4813,
1705.2143,4824,
1706.2563,4810,
1707.2981,4830,
1708.3397,4831,
1709.3811,4848,
1710.4222,4814,
1711.4632,4832,
1712.5039,4856,
1713.5444,4856,
1714.5846,4833,
1715.6247,4845,
1716.6645,4845,
1717.7041,4848,
1718.7435,4854,
1719.7827,4860,
1720.8216,4847,
1721.8604,4834,
1722.8989,4835,
1723.9372,4854,
1724.9753,4863,
1726.0131,4839,
1727.0507,4869,
1728.0881,4857,
1729.1253,4847,
1730.1623,4873,
1731.1991,4859,
1732.2356,4873,
1733.2719,4868,
1734.308,4866,
1735.3439,4865,
1736.3795,4857,
1737.415,4884,
1738.4502,4872,
1739.4852,4863,
1740.5199,4867,
1741.5545,4848,
1742.5888,4841,
1743.6229,4859,
1744.6568,4844,
1745.6905,4864,
1746.724,4827,
1747.7572,4841,
1748.7902,4826,
1749.823,4834,
1750.8556,4832,
1751.8879,4828,
1752.92,4825,
1753.952,4842,
1754.9837,4835,
1756.0151,4817,
1757.0464,4818,
1758.0774,4815,
1759.1082,4811,
1760.1388,4802,
1761.1692,4792,
1762.1993,4825,
1763.2293,4802,
1764.259,4794,
1765.2885,4794,
1766.3178,4804,
1767.3468,4793,
1768.3756,4796,
1769.4043,4800,
1770.4327,4787,
1771.4608,4784,
1772.4888,4797,
1773.5165,4792,
1774.544,4803,
1775.5713,4798,
1776.5984,4816,
1777.6252,4860,
1778.6519,4900,
1779.6783,4918,
1780.7045,4876,
1781.7305,4823,
1782.7562,4808,
1783.7817,4790,
1784.8071,4795,
1785.8322,4784,
1786.857,4785,
1787.8817,4810,
1788.9061,4798,
1789.9303,4806,
1790.9543,4786,
1791.9781,4798,
1793.0017,4787,
1794.025,4797,
1795.0481,4787,
1796.071,4804,
1797.0937,4795,
1798.1161,4792,
1799.1384,4793,
1800.1604,4808,
1801.1822,4788,
1802.2037,4804,
1803.2251,4809,
1804.2462,4796,
1805.2671,4798,
1806.2878,4802,
1807.3083,4801,
1808.3286,4809,
1809.3486,4813,
1810.3684,4801,
1811.388,4797,
1812.4074,4814,
1813.4265,4817,
1814.4455,4816,
1815.4642,4827,
1816.4827,4806,
1817.501,4832,
1818.519,4828,
1819.5368,4821,
1820.5545,4823,
1821.5719,4816,
1822.589,4837,
1823.606,4839,
1824.6227,4825,
1825.6392,4827,
1826.6555,4822,
1827.6716,4826,
1828.6875,4829,
1829.7031,4836,
1830.7185,4840,
1831.7337,4860,
1832.7487,4847,
1833.7634,4857,
1834.778,4843,
1835.7923,4860,
1836.8064,4857,
1837.8202,4843,
1838.8339,4865,
1839.8473,4858,
1840.8606,4868,
1841.8736,4851,
1842.8863,4868,
1843.8989,4852,
1844.9112,4870,
1845.9233,4863,
1846.9352,4870,
1847.9469,4874,
1848.9584,4896,
1849.9696,4883,
1850.9806,4877,
1851.9914,4875,
1853.002,4876,
1854.0123,4878,
1855.0225,4877,
1856.0324,4858,
1857.0421,4867,
1858.0516,4874,
1859.0608,4871,
1860.0698,4860,
1861.0787,4868,
1862.0873,4860,
1863.0956,4856,
1864.1038,4873,
1865.1117,4877,
1866.1194,4847,
1867.1269,4847,
1868.1342,4831,
1869.1413,4845,
1870.1481,4852,
1871.1547,4844,
1872.1611,4854,
1873.1673,4840,
1874.1733,4856,
1875.179,4845,
1876.1845,4852,
1877.1898,4848,
1878.1949,4839,
1879.1997,4847,
1880.2044,4834,
1881.2088,4838,
1882.213,4836,
1883.217,4835,
1884.2207,4825,
1885.2243,4821,
1886.2276,4833,
1887.2307,4820,
1888.2335,4817,
1889.2362,4801,
1890.2386,4810,
1891.2409,4816,
1892.2428,4823,
1893.2446,4827,
1894.2462,4819,
1895.2475,4822,
1896.2486,4825,
1897.2495,4806,
1898.2502,4818,
1899.2507,4826,
1900.2509,4826,
1901.2509,4831,
1902.2507,4801,
1903.2503,4800,
1904.2497,4800,
1905.2488,4799,
1906.2477,4787,
1907.2464,4796,
1908.2449,4793,
1909.2431,4805,
1910.2412,4790,
1911.239,4811,
1912.2366,4796,
1913.234,4815,
1914.2311,4801,
1915.2281,4791,
1916.2248,4790,
1917.2213,4807,
1918.2176,4790,
1919.2136,4800,
1920.2094,4804,
1921.2051,4810,
1922.2005,4805,
1923.1956,4802,
1924.1906,4793,
1925.1853,4809,
1926.1799,4792,
1927.1741,4805,
1928.1682,4803,
1929.1621,4815,
1930.1557,4809,
1931.1491,4812,
1932.1423,4816,
1933.1353,4809,
1934.1281,4813,
1935.1206,4810,
1936.1129,4800,
1937.105,4836,
1938.0969,4830,
1939.0886,4816,
1940.08,4815,
1941.0712,4816,
1942.0622,4805,
1943.053,4803,
1944.0436,4821,
1945.0339,4833,
1946.024,4824,
1947.0139,4820,
1948.0036,4828,
1948.993,4827,
1949.9823,4827,
1950.9713,4811,
1951.9601,4823,
1952.9487,4832,
1953.937,4853,
1954.9252,4827,
1955.9131,4832,
1956.9008,4829,
1957.8883,4851,
1958.8755,4833,
1959.8626,4832,
1960.8494,4842,
1961.836,4836,
1962.8224,4848,
1963.8085,4841,
