839.97719,4749,
841.18816,4765,
842.39891,4765,
843.60944,4755,
844.81975,4764,
846.02984,4774,
847.23971,4798,
848.44936,4864,
849.65879,4849,
850.868,4798,
852.07699,4786,
853.28576,4779,
854.49431,4766,
855.70264,4752,
856.91075,4768,
858.11864,4772,
859.32631,4760,
860.53376,4768,
861.741,4771,
862.94801,4772,
864.1548,4773,
865.36137,4779,
866.56772,4776,
867.77385,4768,
868.97976,4785,
870.18545,4806,
871.39092,4874,
872.59617,4890,
873.8012,4845,
875.00601,4776,
876.2106,4759,
877.41497,4766,
878.61913,4762,
879.82306,4755,
881.02677,4766,
882.23026,4757,
883.43353,4767,
884.63658,4763,
885.83941,4764,
887.04202,4767,
888.24441,4773,
889.44658,4754,
890.64854,4766,
891.85027,4757,
893.05178,4769,
894.25307,4765,
895.45414,4761,
896.65499,4768,
897.85562,4755,
899.05603,4759,
900.25623,4772,
901.4562,4760,
902.65595,4747,
903.85548,4765,
905.05479,4767,
906.25388,4761,
907.45276,4767,
908.65141,4768,
909.84984,4751,
911.04805,4773,
912.24604,4774,
913.44381,4760,
914.64137,4764,
915.8387,4768,
917.03581,4765,
918.2327,4761,
919.42937,4765,
920.62582,4761,
921.82206,4769,
923.01807,4749,
924.21386,4762,
925.40943,4755,
926.60478,4760,
927.79992,4759,
928.99483,4760,
930.18952,4757,
931.38399,4751,
932.57825,4760,
933.77228,4763,
934.96609,4764,
936.15968,4768,
937.35305,4767,
938.54621,4756,
939.73914,4763,
940.93185,4753,
942.12434,4756,
943.31662,4763,
944.50867,4761,
945.7005,4771,
946.89211,4768,
948.08351,4773,
949.27468,4749,
950.46563,4772,
951.65636,4755,
952.84688,4766,
954.03717,4764,
955.22724,4755,
956.41709,4745,
957.60673,4765,
958.79614,4759,
959.98533,4758,
961.17431,4767,
962.36306,4751,
963.55159,4752,
964.7399,4760,
965.928,4768,
967.11587,4760,
968.30352,4764,
969.49096,4761,
970.67817,4767,
971.86516,4768,
973.05194,4764,
974.23849,4767,
975.42482,4764,
976.61094,4779,
977.79683,4771,
978.9825,4773,
980.16795,4780,
981.35319,4776,
982.5382,4761,
983.72299,4760,
984.90757,4763,
986.09192,4764,
987.27606,4777,
988.45997,4774,
989.64366,4768,
990.82714,4778,
992.01039,4772,
993.19342,4760,
994.37624,4767,
995.55883,4764,
996.7412,4774,
997.92336,4754,
999.10529,4766,
1000.287,4752,
1001.4685,4749,
1002.6498,4757,
1003.8308,4762,
1005.0117,4808,
1006.1923,4823,
1007.3727,4790,
1008.5528,4778,
1009.7328,4778,
1010.9125,4772,
1012.092,4775,
1013.2713,4779,
1014.4504,4776,
1015.6293,4776,
1016.8079,4764,
1017.9863,4770,
1019.1645,4773,
1020.3425,4756,
1021.5202,4757,
1022.6978,4775,
1023.8751,4767,
1025.0522,4768,
1026.2291,4765,
1027.4057,4760,
1028.5821,4765,
1029.7584,4772,
1030.9344,4762,
1032.1101,4770,
1033.2857,4770,
1034.461,4758,
1035.6361,4772,
1036.811,4748,
1037.9857,4782,
1039.1602,4766,
1040.3344,4766,
1041.5084,4777,
1042.6822,4758,
1043.8558,4766,
1045.0291,4780,
1046.2023,4767,
1047.3752,4776,
1048.5479,4778,
1049.7203,4776,
1050.8926,4778,
1052.0646,4779,
1053.2365,4793,
1054.408,4782,
1055.5794,4792,
1056.7506,4774,
1057.9215,4763,
1059.0922,4775,
1060.2627,4767,
1061.433,4763,
1062.6031,4764,
1063.7729,4775,
1064.9425,4772,
1066.1119,4774,
1067.2811,4771,
1068.45,4778,
1069.6188,4779,
1070.7873,4783,
1071.9556,4759,
1073.1237,4777,
1074.2915,4768,
1075.4591,4777,
1076.6266,4765,
1077.7938,4777,
1078.9607,4770,
1080.1275,4768,
1081.294,4763,
1082.4603,4767,
1083.6264,4766,
1084.7923,4769,
1085.958,4769,
1087.1234,4775,
1088.2886,4759,
1089.4536,4757,
1090.6184,4764,
1091.7829,4767,
1092.9473,4772,
1094.1114,4779,
1095.2753,4762,
1096.439,4763,
1097.6024,4774,
1098.7657,4761,
1099.9287,4767,
1101.0915,4772,
1102.254,4761,
1103.4164,4762,
1104.5785,4762,
1105.7405,4788,
1106.9022,4765,
1108.0636,4775,
1109.2249,4783,
1110.3859,4765,
1111.5467,4759,
1112.7073,4768,
1113.8677,4764,
1115.0279,4765,
1116.1878,4763,
1117.3475,4779,
1118.507,4767,
1119.6663,4776,
1120.8254,4778,
1121.9842,4775,
1123.1428,4777,
1124.3012,4777,
1125.4594,4772,
1126.6173,4788,
1127.7751,4773,
1128.9326,4782,
1130.0899,4771,
1131.247,4780,
1132.4038,4782,
1133.5605,4780,
1134.7169,4764,
1135.8731,4768,
1137.029,4773,
1138.1848,4770,
1139.3403,4767,
1140.4957,4777,
1141.6508,4783,
1142.8056,4785,
1143.9603,4784,
1145.1147,4771,
1146.2689,4774,
1147.4229,4770,
1148.5767,4754,
1149.7303,4767,
1150.8836,4769,
1152.0367,4766,
1153.1896,4773,
1154.3423,4789,
1155.4948,4774,
1156.647,4771,
1157.799,4765,
1158.9508,4770,
1160.1024,4767,
1161.2538,4772,
1162.4049,4772,
1163.5558,4779,
1164.7065,4767,
1165.857,4769,
1167.0072,4778,
1168.1573,4782,
1169.3071,4789,
1170.4567,4765,
1171.6061,4780,
1172.7552,4773,
1173.9042,4780,
1175.0529,4767,
1176.2014,4786,
1177.3497,4776,
1178.4977,4785,
1179.6456,4781,
1180.7932,4792,
1181.9406,4778,
1183.0878,4786,
1184.2347,4786,
1185.3815,4795,
1186.528,4787,
1187.6743,4810,
1188.8203,4779,
1189.9662,4776,
1191.1118,4783,
1192.2573,4808,
1193.4025,4801,
1194.5474,4804,
1195.6922,4788,
1196.8367,4789,
1197.9811,4791,
1199.1252,4795,
1200.269,4775,
1201.4127,4791,
1202.5561,4797,
1203.6993,4803,
1204.8423,4779,
1205.9851,4782,
1207.1277,4785,
1208.27,4778,
1209.4121,4776,
1210.554,4769,
1211.6957,4772,
1212.8372,4777,
1213.9784,4765,
1215.1194,4770,
1216.2602,4763,
1217.4008,4783,
1218.5412,4779,
1219.6813,4785,
1220.8212,4757,
1221.9609,4777,
1223.1004,4767,
1224.2397,4773,
1225.3787,4788,
1226.5175,4777,
1227.6561,4774,
1228.7945,4773,
1229.9327,4777,
1231.0706,4774,
1232.2083,4772,
1233.3458,4761,
1234.4831,4780,
1235.6202,4781,
1236.757,4765,
1237.8936,4787,
1239.03,4772,
1240.1662,4786,
1241.3022,4772,
1242.4379,4783,
1243.5734,4785,
1244.7087,4785,
1245.8438,4781,
1246.9787,4780,
1248.1133,4770,
1249.2477,4784,
1250.3819,4782,
1251.5159,4786,
1252.6497,4787,
1253.7832,4769,
1254.9165,4788,
1256.0496,4790,
1257.1825,4787,
1258.3152,4791,
1259.4476,4789,
1260.5798,4779,
1261.7118,4799,
1262.8436,4798,
1263.9752,4822,
1265.1065,4890,
1266.2376,5079,
1267.3685,5532,
1268.4992,5833,
1269.6297,5511,
1270.7599,5006,
1271.8899,4848,
1273.0197,4798,
1274.1493,4793,
1275.2787,4788,
1276.4078,4801,
1277.5367,4802,
1278.6654,4798,
1279.7939,4777,
1280.9222,4787,
1282.0502,4778,
1283.178,4798,
1284.3056,4794,
1285.433,4788,
1286.5602,4787,
1287.6871,4790,
1288.8138,4790,
1289.9403,4802,
1291.0666,4791,
1292.1927,4796,
1293.3185,4778,
1294.4441,4801,
1295.5695,4793,
1296.6947,4804,
1297.8197,4791,
1298.9444,4808,
1300.0689,4820,
1301.1932,4813,
1302.3173,4831,
1303.4412,4813,
1304.5648,4817,
1305.6882,4804,
1306.8114,4835,
1307.9344,4834,
1309.0572,4833,
1310.1797,4829,
1311.302,4836,
1312.4241,4856,
1313.546,4853,
1314.6677,4876,
1315.7891,4885,
1316.9104,4894,
1318.0314,4897,
1319.1521,4936,
1320.2727,4956,
1321.393,4958,
1322.5132,4996,
1323.6331,5030,
1324.7527,5084,
1325.8722,5143,
1326.9914,5224,
1328.1105,5362,
1329.2293,5590,
1330.3479,6173,
1331.4662,7258,
1332.5844,9649,
1333.7023,13088,
1334.82,16377,
1335.9375,17974,
1337.0547,17663,
1338.1718,16679,
1339.2886,15226,
1340.4052,14186,
1341.5216,14181,
1342.6377,13916,
1343.7537,13685,
1344.8694,13204,
1345.9849,12483,
1347.1002,12225,
1348.2152,11884,
1349.3301,11329,
1350.4447,11017,
1351.5591,10697,
1352.6733,10174,
1353.7873,9690,
1354.901,9224,
1356.0145,8756,
1357.1278,8718,
1358.2409,8539,
1359.3538,8387,
1360.4664,8386,
1361.5788,8461,
1362.691,8357,
1363.803,8299,
1364.9148,8068,
1366.0263,7904,
1367.1376,7807,
1368.2488,7641,
1369.3596,7491,
1370.4703,7347,
1371.5807,7201,
1372.691,7280,
1373.801,7145,
1374.9107,7022,
1376.0203,6878,
1377.1297,6885,
1378.2388,6832,
1379.3477,6804,
1380.4564,6850,
1381.5648,6772,
1382.6731,6602,
1383.7811,6639,
1384.8889,6660,
1385.9965,6587,
1387.1038,6532,
1388.211,6416,
1389.3179,6383,
1390.4246,6354,
1391.5311,6476,
1392.6374,6490,
1393.7434,6471,
1394.8492,6488,
1395.9548,6451,
1397.0602,6366,
1398.1654,6335,
1399.2703,6225,
1400.375,6240,
1401.4795,6317,
1402.5838,6335,
1403.6879,6266,
1404.7917,6247,
1405.8954,6197,
1406.9988,6175,
1408.1019,6085,
1409.2049,5993,
1410.3077,5907,
1411.4102,5941,
1412.5125,5888,
1413.6146,5832,
1414.7164,5777,
1415.8181,5740,
1416.9195,5750,
1418.0207,5780,
1419.1217,5790,
1420.2225,5789,
1421.323,5837,
1422.4233,5852,
1423.5234,5878,
1424.6233,5852,
1425.723,5821,
1426.8224,5734,
1427.9216,5669,
1429.0206,5624,
1430.1194,5602,
1431.218,5568,
1432.3163,5579,
1433.4145,5598,
1434.5124,5538,
1435.6101,5575,
1436.7075,5599,
1437.8048,5609,
1438.9018,5637,
1439.9986,5641,
1441.0952,5519,
1442.1915,5625,
1443.2877,5650,
1444.3836,5659,
1445.4793,5579,
1446.5748,5561,
1447.6701,5579,
1448.7651,5516,
1449.8599,5516,
1450.9545,5467,
1452.0489,5473,
1453.1431,5452,
1454.237,5396,
1455.3308,5419,
1456.4243,5323,
1457.5175,5296,
1458.6106,5338,
1459.7035,5325,
1460.7961,5408,
1461.8885,5413,
1462.9807,5393,
1464.0726,5396,
1465.1644,5424,
1466.2559,5427,
1467.3472,5420,
1468.4383,5400,
1469.5292,5368,
1470.6198,5332,
1471.7102,5313,
1472.8004,5292,
1473.8904,5325,
1474.9802,5316,
1476.0697,5371,
1477.1591,5327,
1478.2482,5312,
1479.3371,5283,
1480.4257,5232,
1481.5142,5190,
1482.6024,5206,
1483.6904,5216,
1484.7782,5244,
1485.8657,5245,
1486.9531,5264,
1488.0402,5258,
1489.1271,5293,
1490.2138,5313,
1491.3003,5214,
1492.3865,5264,
1493.4725,5206,
1494.5584,5204,
1495.6439,5212,
1496.7293,5203,
1497.8145,5194,
1498.8994,5148,
1499.9841,5118,
1501.0686,5146,
1502.1528,5125,
1503.2369,5110,
1504.3207,5141,
1505.4043,5198,
1506.4877,5170,
1507.5709,5169,
1508.6538,5189,
1509.7365,5204,
1510.819,5182,
1511.9013,5177,
1512.9834,5129,
1514.0652,5120,
1515.1469,5138,
1516.2283,5149,
1517.3095,5088,
1518.3904,5121,
1519.4712,5105,
1520.5517,5144,
1521.632,5163,
1522.7121,5144,
1523.792,5149,
1524.8716,5158,
1525.951,5153,
1527.0302,5139,
1528.1092,5152,
1529.188,5147,
1530.2665,5156,
1531.3449,5154,
1532.423,5124,
1533.5009,5123,
1534.5785,5107,
1535.656,5100,
1536.7332,5118,
1537.8102,5168,
1538.887,5103,
1539.9636,5096,
1541.0399,5088,
1542.116,5069,
1543.192,5088,
1544.2676,5078,
1545.3431,5110,
1546.4184,5084,
1547.4934,5064,
1548.5682,5067,
1549.6428,5034,
1550.7171,5031,
1551.7913,5037,
1552.8652,5035,
1553.9389,5070,
1555.0124,5049,
1556.0857,5024,
1557.1587,5029,
1558.2316,5042,
1559.3042,5029,
1560.3766,5046,
1561.4487,5049,
1562.5207,5024,
1563.5924,5031,
1564.6639,5028,
1565.7352,5010,
1566.8063,5032,
1567.8771,5017,
1568.9477,5007,
1570.0181,5028,
1571.0883,5035,
1572.1583,5030,
1573.228,5011,
1574.2976,5018,
1575.3669,5029,
1576.436,5034,
1577.5048,5018,
1578.5735,5033,
1579.6419,5031,
1580.7101,5042,
1581.7781,5051,
1582.8459,5032,
1583.9134,5004,
1584.9808,4966,
1586.0479,4985,
1587.1148,5009,
1588.1814,5010,
1589.2479,5045,
1590.3141,5026,
1591.3801,5036,
1592.4459,5015,
1593.5115,5017,
1594.5768,5016,
1595.6419,4975,
1596.7068,5016,
1597.7715,5039,
1598.836,5031,
1599.9003,5023,
1600.9643,5004,
1602.0281,4996,
1603.0917,5015,
1604.1551,5016,
1605.2182,5049,
1606.2811,5055,
1607.3438,5016,
1608.4063,5028,
1609.4686,5034,
1610.5306,5083,
1611.5925,5054,
1612.6541,5071,
1613.7155,5015,
1614.7766,5016,
1615.8376,5007,
1616.8983,5045,
1617.9588,4993,
1619.0191,4973,
1620.0792,5019,
1621.139,5020,
1622.1987,5036,
1623.2581,5004,
1624.3173,4991,
1625.3762,4993,
1626.435,4973,
1627.4935,5006,
1628.5518,5003,
1629.6099,5005,
1630.6678,4980,
1631.7254,4974,
1632.7829,4969,
1633.8401,4949,
1634.8971,4972,
1635.9538,4944,
1637.0104,4950,
1638.0667,4957,
1639.1228,4958,
1640.1787,4985,
1641.2344,4957,
1642.2898,4965,
1643.3451,4965,
1644.4001,4998,
1645.4549,4980,
1646.5094,4947,
1647.5638,4908,
1648.6179,4878,
1649.6718,4857,
1650.7255,4850,
1651.779,4848,
1652.8322,4829,
1653.8853,4813,
1654.9381,4805,
1655.9907,4790,
1657.043,4778,
1658.0952,4781,
1659.1471,4772,
1660.1988,4775,
1661.2503,4768,
1662.3016,4762,
1663.3526,4773,
1664.4035,4753,
1665.4541,4763,
1666.5045,4762,
1667.5546,4774,
1668.6046,4773,
1669.6543,4754,
1670.7038,4784,
1671.7531,4767,
1672.8022,4778,
1673.851,4779,
1674.8997,4782,
1675.9481,4765,
1676.9963,4777,
1678.0442,4772,
1679.092,4765,
1680.1395,4764,
1681.1868,4773,
1682.2339,4788,
1683.2808,4779,
1684.3274,4785,
1685.3739,4762,
1686.4201,4792,
1687.4661,4782,
1688.5118,4794,
1689.5574,4786,
1690.6027,4791,
1691.6478,4791,
1692.6927,4787,
1693.7374,4787,
1694.7819,4788,
1695.8261,4794,
1696.8701,4792,
1697.9139,4792,
1698.9575,4802,
1700.0008,4786,
1701.0439,4800,
1702.0869,4803,
1703.1295,4798,
1704.172,4815,
1705.2143,4813,
1706.2563,4797,
1707.2981,4794,
1708.3397,4815,
1709.3811,4814,
1710.4222,4826,
1711.4632,4800,
1712.5039,4816,
1713.5444,4816,
1714.5846,4809,
1715.6247,4810,
1716.6645,4812,
1717.7041,4824,
1718.7435,4828,
1719.7827,4815,
1720.8216,4818,
1721.8604,4835,
1722.8989,4825,
1723.9372,4825,
1724.9753,4835,
1726.0131,4812,
1727.0507,4823,
1728.0881,4824,
1729.1253,4824,
1730.1623,4840,
1731.1991,4826,
1732.2356,4831,
1733.2719,4845,
1734.308,4837,
1735.3439,4833,
1736.3795,4846,
1737.415,4839,
1738.4502,4853,
1739.4852,4832,
1740.5199,4842,
1741.5545,4835,
1742.5888,4839,
1743.6229,4841,
1744.6568,4845,
1745.6905,4818,
1746.724,4823,
1747.7572,4842,
1748.7902,4821,
1749.823,4810,
1750.8556,4825,
1751.8879,4818,
1752.92,4814,
1753.952,4797,
1754.9837,4795,
1756.0151,4825,
1757.0464,4817,
1758.0774,4801,
1759.1082,4803,
1760.1388,4792,
1761.1692,4809,
1762.1993,4791,
1763.2293,4799,
1764.259,4796,
1765.2885,4801,
1766.3178,4786,
1767.3468,4784,
1768.3756,4785,
1769.4043,4793,
1770.4327,4761,
1771.4608,4795,
1772.4888,4783,
1773.5165,4793,
1774.544,4780,
1775.5713,4788,
1776.5984,4803,
1777.6252,4843,
1778.6519,4893,
1779.6783,4909,
1780.7045,4874,
1781.7305,4820,
1782.7562,4788,
1783.7817,4791,
1784.8071,4767,
1785.8322,4797,
1786.857,4789,
1787.8817,4786,
1788.9061,4801,
1789.9303,4784,
1790.9543,4790,
1791.9781,4780,
1793.0017,4771,
1794.025,4784,
1795.0481,4779,
1796.071,4782,
1797.0937,4797,
1798.1161,4773,
1799.1384,4780,
1800.1604,4792,
1801.1822,4793,
1802.2037,4797,
1803.2251,4791,
1804.2462,4802,
1805.2671,4793,
1806.2878,4793,
1807.3083,4797,
1808.3286,4787,
1809.3486,4804,
1810.3684,4802,
1811.388,4804,
1812.4074,4809,
1813.4265,4805,
1814.4455,4820,
1815.4642,4807,
1816.4827,4805,
1817.501,4807,
1818.519,4819,
1819.5368,4812,
1820.5545,4815,
1821.5719,4813,
1822.589,4815,
1823.606,4802,
1824.6227,4824,
1825.6392,4810,
1826.6555,4819,
1827.6716,4827,
1828.6875,4810,
1829.7031,4816,
1830.7185,4837,
1831.7337,4841,
1832.7487,4826,
1833.7634,4830,
1834.778,4822,
1835.7923,4825,
1836.8064,4824,
1837.8202,4807,
1838.8339,4839,
1839.8473,4836,
1840.8606,4839,
1841.8736,4847,
1842.8863,4846,
1843.8989,4856,
1844.9112,4855,
1845.9233,4856,
1846.9352,4848,
1847.9469,4832,
1848.9584,4824,
1849.9696,4837,
1850.9806,4850,
1851.9914,4836,
1853.002,4852,
1854.0123,4853,
1855.0225,4839,
1856.0324,4859,
1857.0421,4834,
1858.0516,4833,
1859.0608,4846,
1860.0698,4836,
1861.0787,4826,
1862.0873,4822,
1863.0956,4834,
1864.1038,4828,
1865.1117,4845,
1866.1194,4819,
1867.1269,4812,
1868.1342,4813,
1869.1413,4808,
1870.1481,4828,
1871.1547,4800,
1872.1611,4839,
1873.1673,4820,
1874.1733,4822,
1875.179,4822,
1876.1845,4816,
1877.1898,4813,
1878.1949,4823,
1879.1997,4828,
1880.2044,4817,
1881.2088,4826,
1882.213,4810,
1883.217,4804,
1884.2207,4800,
1885.2243,4779,
1886.2276,4817,
1887.2307,4800,
1888.2335,4805,
1889.2362,4797,
1890.2386,4809,
1891.2409,4803,
1892.2428,4788,
1893.2446,4793,
1894.2462,4791,
1895.2475,4792,
1896.2486,4796,
1897.2495,4791,
1898.2502,4818,
1899.2507,4811,
1900.2509,4821,
1901.2509,4813,
1902.2507,4810,
1903.2503,4787,
1904.2497,4779,
1905.2488,4784,
1906.2477,4799,
1907.2464,4790,
1908.2449,4781,
1909.2431,4781,
1910.2412,4801,
1911.239,4784,
1912.2366,4785,
1913.234,4778,
1914.2311,4790,
1915.2281,4793,
1916.2248,4781,
1917.2213,4786,
1918.2176,4790,
1919.2136,4788,
1920.2094,4794,
1921.2051,4786,
1922.2005,4787,
1923.1956,4799,
1924.1906,4787,
1925.1853,4783,
1926.1799,4792,
1927.1741,4790,
1928.1682,4800,
1929.1621,4796,
1930.1557,4783,
1931.1491,4791,
1932.1423,4792,
1933.1353,4790,
1934.1281,4791,
1935.1206,4800,
1936.1129,4812,
1937.105,4794,
1938.0969,4815,
1939.0886,4812,
1940.08,4797,
1941.0712,4793,
1942.0622,4804,
1943.053,4801,
1944.0436,4811,
1945.0339,4805,
1946.024,4813,
1947.0139,4814,
1948.0036,4812,
1948.993,4800,
1949.9823,4815,
1950.9713,4806,
1951.9601,4808,
1952.9487,4805,
1953.937,4820,
1954.9252,4816,
1955.9131,4816,
1956.9008,4820,
1957.8883,4817,
1958.8755,4825,
1959.8626,4815,
1960.8494,4815,
1961.836,4829,
1962.8224,4820,
1963.8085,4815,
