# == pyFAI calibration ==
# Distance Sample to Detector: 0.400151958433 m
# PONI: 1.472e-01, 1.496e-01 m
# Rotations: -0.001085 0.000539 -0.000000 rad
# 
# == Fit2d calibration ==
# Distance Sample-beamCenter: 400.152 mm
# Center: x=1500.210, y=1474.586 pix
# Tilt: 0.069 deg  TiltPlanRot: 26.426 deg
# 
# Detector Detector	 Spline= None	 PixelSize= 1.000e-04, 1.000e-04 m
#    Detector has a mask: False 
#    Detector has a dark current: False 
#    detector has a flat field: False 
# 
# Wavelength: 4.12969e-11 m
# Mask applied: None
# Dark current applied: None
# Flat field applied: None
# Polarization factor: None
# Normalization factor: None
#
# 2th_deg	 I
6.000256231E+00  1.774085918E-03
6.006831854E+00  -4.372887779E-03
6.013407478E+00  -3.737531602E-02
6.019983101E+00  1.188449189E-01
6.026558724E+00  3.768038005E-02
6.033134347E+00  -3.410126567E-01
6.039709971E+00  2.604071796E-02
6.046285594E+00  1.532016277E+00
6.052861217E+00  1.576708794E+00
6.059436840E+00  5.978916883E-01
6.066012464E+00  5.674985051E-01
6.072588087E+00  7.101661991E-03
6.079163710E+00  5.310411453E-01
6.085739334E+00  7.279753089E-01
6.092314957E+00  4.720697105E-01
6.098890580E+00  7.615974545E-01
6.105466203E+00  1.270540953E+00
6.112041827E+00  9.734950066E-01
6.118617450E+00  7.670528889E-01
6.125193073E+00  -3.193073571E-01
6.131768696E+00  -2.256418467E-01
6.138344320E+00  5.733927488E-01
6.144919943E+00  1.563112020E+00
6.151495566E+00  1.962748766E+00
6.158071190E+00  1.480058074E+00
6.164646813E+00  8.963599205E-01
6.171222436E+00  1.171646237E+00
6.177798059E+00  2.557941675E+00
6.184373683E+00  2.972983599E+00
6.190949306E+00  3.065202236E+00
6.197524929E+00  3.198545456E+00
6.204100552E+00  4.155734539E+00
6.210676176E+00  4.739858150E+00
6.217251799E+00  4.734715462E+00
6.223827422E+00  5.134513855E+00
6.230403045E+00  4.882872581E+00
6.236978669E+00  4.132323742E+00
6.243554292E+00  3.081422567E+00
6.250129915E+00  3.652868271E+00
6.256705539E+00  4.461857796E+00
6.263281162E+00  5.147907734E+00
6.269856785E+00  4.678795338E+00
6.276432408E+00  5.072430611E+00
6.283008032E+00  5.042044163E+00
6.289583655E+00  4.293211937E+00
6.296159278E+00  2.210042715E+00
6.302734901E+00  2.178087950E+00
6.309310525E+00  3.121623993E+00
6.315886148E+00  4.339046478E+00
6.322461771E+00  4.466704845E+00
6.329037394E+00  4.754526138E+00
6.335613018E+00  5.160258293E+00
6.342188641E+00  4.341679573E+00
6.348764264E+00  4.344132900E+00
6.355339888E+00  4.254616737E+00
6.361915511E+00  5.981126785E+00
6.368491134E+00  6.779308319E+00
6.375066757E+00  7.853324413E+00
6.381642381E+00  7.294850349E+00
6.388218004E+00  7.227629185E+00
6.394793627E+00  6.705434322E+00
6.401369250E+00  7.802895069E+00
6.407944874E+00  6.490006447E+00
6.414520497E+00  7.215125084E+00
6.421096120E+00  7.494554996E+00
6.427671743E+00  8.252861023E+00
6.434247367E+00  7.647309780E+00
6.440822990E+00  7.198706150E+00
6.447398613E+00  5.840446949E+00
6.453974237E+00  5.596725464E+00
6.460549860E+00  5.979242802E+00
6.467125483E+00  8.180069923E+00
6.473701106E+00  1.049400139E+01
6.480276730E+00  1.195673943E+01
6.486852353E+00  1.315861034E+01
6.493427976E+00  1.297626495E+01
6.500003599E+00  1.286052036E+01
6.506579223E+00  1.293598747E+01
6.513154846E+00  1.256674671E+01
6.519730469E+00  1.111784172E+01
6.526306092E+00  1.142428207E+01
6.532881716E+00  1.237162209E+01
6.539457339E+00  1.160422039E+01
6.546032962E+00  9.916853905E+00
6.552608586E+00  8.499593735E+00
6.559184209E+00  8.691229820E+00
6.565759832E+00  8.493922234E+00
6.572335455E+00  9.150101662E+00
6.578911079E+00  1.008046246E+01
6.585486702E+00  1.123356056E+01
6.592062325E+00  1.116589355E+01
6.598637948E+00  1.078822994E+01
6.605213572E+00  1.101184082E+01
6.611789195E+00  1.079536915E+01
6.618364818E+00  1.109208965E+01
6.624940441E+00  1.127446079E+01
6.631516065E+00  1.090340519E+01
6.638091688E+00  1.115603924E+01
6.644667311E+00  1.226390076E+01
6.651242935E+00  1.279004574E+01
6.657818558E+00  1.267396927E+01
6.664394181E+00  1.321817303E+01
6.670969804E+00  1.280179501E+01
6.677545428E+00  1.271825027E+01
6.684121051E+00  1.190814972E+01
6.690696674E+00  1.113117504E+01
6.697272297E+00  9.209492683E+00
6.703847921E+00  7.767261028E+00
6.710423544E+00  7.457193851E+00
6.716999167E+00  8.073608398E+00
6.723574790E+00  8.756281853E+00
6.730150414E+00  9.463603020E+00
6.736726037E+00  9.373947144E+00
6.743301660E+00  9.189869881E+00
6.749877284E+00  1.076287365E+01
6.756452907E+00  1.132314491E+01
6.763028530E+00  1.138555527E+01
6.769604153E+00  9.658850670E+00
6.776179777E+00  9.163318634E+00
6.782755400E+00  7.355302811E+00
6.789331023E+00  5.906741619E+00
6.795906646E+00  5.948328018E+00
6.802482270E+00  7.278737068E+00
6.809057893E+00  8.930295944E+00
6.815633516E+00  9.309602737E+00
6.822209139E+00  8.854996681E+00
6.828784763E+00  8.229911804E+00
6.835360386E+00  8.616085052E+00
6.841936009E+00  9.004328728E+00
6.848511633E+00  1.006488228E+01
6.855087256E+00  1.004512024E+01
6.861662879E+00  8.671648979E+00
6.868238502E+00  8.414950371E+00
6.874814126E+00  8.286992073E+00
6.881389749E+00  7.587563992E+00
6.887965372E+00  6.360821724E+00
6.894540995E+00  5.109886646E+00
6.901116619E+00  4.754369259E+00
6.907692242E+00  5.030271530E+00
6.914267865E+00  5.344727039E+00
6.920843488E+00  5.595583916E+00
6.927419112E+00  5.776876926E+00
6.933994735E+00  5.213449955E+00
6.940570358E+00  4.419846058E+00
6.947145982E+00  4.651823521E+00
6.953721605E+00  4.431020260E+00
6.960297228E+00  4.472687721E+00
6.966872851E+00  4.607569695E+00
6.973448475E+00  4.336104870E+00
6.980024098E+00  4.359675884E+00
6.986599721E+00  3.273728371E+00
6.993175344E+00  3.470357180E+00
6.999750968E+00  4.334596157E+00
7.006326591E+00  6.016391277E+00
7.012902214E+00  6.614190102E+00
7.019477837E+00  5.945940018E+00
7.026053461E+00  5.728526592E+00
7.032629084E+00  5.023816109E+00
7.039204707E+00  5.180305004E+00
7.045780331E+00  5.832869530E+00
7.052355954E+00  6.768243790E+00
7.058931577E+00  6.857875824E+00
7.065507200E+00  6.678041935E+00
7.072082824E+00  5.493485928E+00
7.078658447E+00  4.498383999E+00
7.085234070E+00  5.123468876E+00
7.091809693E+00  5.486956596E+00
7.098385317E+00  5.913832664E+00
7.104960940E+00  6.457087994E+00
7.111536563E+00  6.045425892E+00
7.118112186E+00  5.212265491E+00
7.124687810E+00  5.723181725E+00
7.131263433E+00  6.045878887E+00
7.137839056E+00  6.327240467E+00
7.144414680E+00  6.962915421E+00
7.150990303E+00  6.870996952E+00
7.157565926E+00  7.321131706E+00
7.164141549E+00  8.203318596E+00
7.170717173E+00  7.284994602E+00
7.177292796E+00  6.439308167E+00
7.183868419E+00  5.644146442E+00
7.190444042E+00  6.028284550E+00
7.197019666E+00  7.591599464E+00
7.203595289E+00  9.572020531E+00
7.210170912E+00  1.051730919E+01
7.216746535E+00  9.781641006E+00
7.223322159E+00  9.770484924E+00
7.229897782E+00  1.089836884E+01
7.236473405E+00  1.096338654E+01
7.243049029E+00  9.404775620E+00
7.249624652E+00  7.970878601E+00
7.256200275E+00  7.113435745E+00
7.262775898E+00  7.618925571E+00
7.269351522E+00  7.150560379E+00
7.275927145E+00  6.476796150E+00
7.282502768E+00  5.511369228E+00
7.289078391E+00  4.807923794E+00
7.295654015E+00  3.885931969E+00
7.302229638E+00  2.582988501E+00
7.308805261E+00  1.788201571E+00
7.315380884E+00  2.271779776E+00
7.321956508E+00  2.627408981E+00
7.328532131E+00  3.581818819E+00
7.335107754E+00  4.090968609E+00
7.341683378E+00  4.284379482E+00
7.348259001E+00  4.444377899E+00
7.354834624E+00  4.526598454E+00
7.361410247E+00  3.989329576E+00
7.367985871E+00  4.512745380E+00
7.374561494E+00  4.489872456E+00
7.381137117E+00  3.928930521E+00
7.387712740E+00  3.533167839E+00
7.394288364E+00  2.839529991E+00
7.400863987E+00  3.594639540E+00
7.407439610E+00  4.499180317E+00
7.414015233E+00  5.336806774E+00
7.420590857E+00  6.296899796E+00
7.427166480E+00  4.605673790E+00
7.433742103E+00  3.839413166E+00
7.440317727E+00  3.752113581E+00
7.446893350E+00  4.178073883E+00
7.453468973E+00  3.946940899E+00
7.460044596E+00  4.812670231E+00
7.466620220E+00  4.652506828E+00
7.473195843E+00  4.738962173E+00
7.479771466E+00  3.537428856E+00
7.486347089E+00  3.530405045E+00
7.492922713E+00  3.741180658E+00
7.499498336E+00  3.854204893E+00
7.506073959E+00  3.474368811E+00
7.512649582E+00  2.384821415E+00
7.519225206E+00  2.063087702E+00
7.525800829E+00  1.724529147E+00
7.532376452E+00  1.161701918E+00
7.538952076E+00  -8.816018701E-02
7.545527699E+00  -9.316208363E-01
7.552103322E+00  -1.479782224E+00
7.558678945E+00  6.167539358E-01
7.565254569E+00  1.831216335E+00
7.571830192E+00  4.017010212E+00
7.578405815E+00  5.446046352E+00
7.584981438E+00  6.477438450E+00
7.591557062E+00  6.786262035E+00
7.598132685E+00  6.538108826E+00
7.604708308E+00  7.325365067E+00
7.611283931E+00  7.987761497E+00
7.617859555E+00  9.569400787E+00
7.624435178E+00  9.252834320E+00
7.631010801E+00  9.844164848E+00
7.637586425E+00  1.044296455E+01
7.644162048E+00  1.149304771E+01
7.650737671E+00  1.159716606E+01
7.657313294E+00  1.210489273E+01
7.663888918E+00  1.266999149E+01
7.670464541E+00  1.337199402E+01
7.677040164E+00  1.269226742E+01
7.683615787E+00  1.190586185E+01
7.690191411E+00  1.053901958E+01
7.696767034E+00  1.055155277E+01
7.703342657E+00  1.025626659E+01
7.709918281E+00  1.072228336E+01
7.716493904E+00  1.090297031E+01
7.723069527E+00  1.103193092E+01
7.729645150E+00  1.077046967E+01
7.736220774E+00  1.012263107E+01
7.742796397E+00  9.839491844E+00
7.749372020E+00  1.024876022E+01
7.755947643E+00  1.011463356E+01
7.762523267E+00  8.249131203E+00
7.769098890E+00  6.500380516E+00
7.775674513E+00  6.183766842E+00
7.782250136E+00  6.173247337E+00
7.788825760E+00  6.005359173E+00
7.795401383E+00  4.930490494E+00
7.801977006E+00  4.727824688E+00
7.808552630E+00  5.610618591E+00
7.815128253E+00  5.745248318E+00
7.821703876E+00  5.520741940E+00
7.828279499E+00  3.859332800E+00
7.834855123E+00  3.941556215E+00
7.841430746E+00  3.826860666E+00
7.848006369E+00  4.698237896E+00
7.854581992E+00  5.370037079E+00
7.861157616E+00  5.900273323E+00
7.867733239E+00  6.539845467E+00
7.874308862E+00  7.457149029E+00
7.880884485E+00  9.839150429E+00
7.887460109E+00  9.624785423E+00
7.894035732E+00  9.446854591E+00
7.900611355E+00  9.179875374E+00
7.907186979E+00  9.613909721E+00
7.913762602E+00  9.307589531E+00
7.920338225E+00  9.731183052E+00
7.926913848E+00  1.098290348E+01
7.933489472E+00  1.297494125E+01
7.940065095E+00  1.431725121E+01
7.946640718E+00  1.571940804E+01
7.953216341E+00  1.710535049E+01
7.959791965E+00  1.796933365E+01
7.966367588E+00  2.125728035E+01
7.972943211E+00  2.445466232E+01
7.979518834E+00  2.810066605E+01
7.986094458E+00  3.006504059E+01
7.992670081E+00  3.386938858E+01
7.999245704E+00  3.658120728E+01
8.005821328E+00  3.899308395E+01
8.012396951E+00  4.245374680E+01
8.018972574E+00  4.654727554E+01
8.025548197E+00  5.047833252E+01
8.032123821E+00  5.539396667E+01
8.038699444E+00  6.212674713E+01
8.045275067E+00  6.938766479E+01
8.051850690E+00  7.729051971E+01
8.058426314E+00  8.447937775E+01
8.065001937E+00  9.385073090E+01
8.071577560E+00  1.044299698E+02
8.078153183E+00  1.188728485E+02
8.084728807E+00  1.361837311E+02
8.091304430E+00  1.569592743E+02
8.097880053E+00  1.802477722E+02
8.104455677E+00  2.067820892E+02
8.111031300E+00  2.376378479E+02
8.117606923E+00  2.743687134E+02
8.124182546E+00  3.214404602E+02
8.130758170E+00  3.722748718E+02
8.137333793E+00  4.281951599E+02
8.143909416E+00  4.900454712E+02
8.150485039E+00  5.449326782E+02
8.157060663E+00  6.016677246E+02
8.163636286E+00  6.395895386E+02
8.170211909E+00  6.696046753E+02
8.176787532E+00  6.808606567E+02
8.183363156E+00  6.795062866E+02
8.189938779E+00  6.681260376E+02
8.196514402E+00  6.491559448E+02
8.203090026E+00  6.189060669E+02
8.209665649E+00  5.766394653E+02
8.216241272E+00  5.353001099E+02
8.222816895E+00  4.887585754E+02
8.229392519E+00  4.375651550E+02
8.235968142E+00  3.886148987E+02
8.242543765E+00  3.434986267E+02
8.249119388E+00  3.052027588E+02
8.255695012E+00  2.705607910E+02
8.262270635E+00  2.392187653E+02
8.268846258E+00  2.131069183E+02
8.275421881E+00  1.907985382E+02
8.281997505E+00  1.737926941E+02
8.288573128E+00  1.582539978E+02
8.295148751E+00  1.446824951E+02
8.301724375E+00  1.304444580E+02
8.308299998E+00  1.172703857E+02
8.314875621E+00  1.055768509E+02
8.321451244E+00  9.710607910E+01
8.328026868E+00  9.177851868E+01
8.334602491E+00  8.613717651E+01
8.341178114E+00  8.003998566E+01
8.347753737E+00  7.479947662E+01
8.354329361E+00  7.007679749E+01
8.360904984E+00  6.640028381E+01
8.367480607E+00  6.364493942E+01
8.374056230E+00  6.354903793E+01
8.380631854E+00  6.170290375E+01
8.387207477E+00  6.014949799E+01
8.393783100E+00  5.816125107E+01
8.400358724E+00  5.755406189E+01
8.406934347E+00  5.775123215E+01
8.413509970E+00  5.798319626E+01
8.420085593E+00  5.719766235E+01
8.426661217E+00  5.656548309E+01
8.433236840E+00  5.419257355E+01
8.439812463E+00  5.314381790E+01
8.446388086E+00  5.165207291E+01
8.452963710E+00  5.030078506E+01
8.459539333E+00  4.925981903E+01
8.466114956E+00  4.836213303E+01
8.472690579E+00  4.609937286E+01
8.479266203E+00  4.240117645E+01
8.485841826E+00  3.886856842E+01
8.492417449E+00  3.416020203E+01
8.498993073E+00  3.200796509E+01
8.505568696E+00  2.969161224E+01
8.512144319E+00  2.749040794E+01
8.518719942E+00  2.476370049E+01
8.525295566E+00  2.461693764E+01
8.531871189E+00  2.457305527E+01
8.538446812E+00  2.400411224E+01
8.545022435E+00  2.174506950E+01
8.551598059E+00  1.978176498E+01
8.558173682E+00  1.936518288E+01
8.564749305E+00  2.000656700E+01
8.571324928E+00  1.939099312E+01
8.577900552E+00  1.795012093E+01
8.584476175E+00  1.687929153E+01
8.591051798E+00  1.588458633E+01
8.597627422E+00  1.588058949E+01
8.604203045E+00  1.641665268E+01
8.610778668E+00  1.649867249E+01
8.617354291E+00  1.581320858E+01
8.623929915E+00  1.604389763E+01
8.630505538E+00  1.653501511E+01
8.637081161E+00  1.838865471E+01
8.643656784E+00  1.937047577E+01
8.650232408E+00  1.968315697E+01
8.656808031E+00  2.023737526E+01
8.663383654E+00  2.131051254E+01
8.669959277E+00  2.220630646E+01
8.676534901E+00  2.159080505E+01
8.683110524E+00  2.055582809E+01
8.689686147E+00  1.975764847E+01
8.696261771E+00  1.995995712E+01
8.702837394E+00  1.994206619E+01
8.709413017E+00  1.952722740E+01
8.715988640E+00  1.832531166E+01
8.722564264E+00  1.852577972E+01
8.729139887E+00  1.858126640E+01
8.735715510E+00  1.703669167E+01
8.742291133E+00  1.536715031E+01
8.748866757E+00  1.395739841E+01
8.755442380E+00  1.370293331E+01
8.762018003E+00  1.127366829E+01
8.768593626E+00  1.048501778E+01
8.775169250E+00  1.048540592E+01
8.781744873E+00  1.105899906E+01
8.788320496E+00  9.161837578E+00
8.794896120E+00  8.041465759E+00
8.801471743E+00  7.339960575E+00
8.808047366E+00  6.494323254E+00
8.814622989E+00  5.556789875E+00
8.821198613E+00  4.746592522E+00
8.827774236E+00  3.100346804E+00
8.834349859E+00  2.283579588E+00
8.840925482E+00  2.126859188E+00
8.847501106E+00  3.474917650E+00
8.854076729E+00  3.835089207E+00
8.860652352E+00  5.652211666E+00
8.867227975E+00  7.041049480E+00
8.873803599E+00  8.252112389E+00
8.880379222E+00  7.792263508E+00
8.886954845E+00  8.312413216E+00
8.893530469E+00  8.331637383E+00
8.900106092E+00  9.083375931E+00
8.906681715E+00  9.927534103E+00
8.913257338E+00  1.055703068E+01
8.919832962E+00  1.173167992E+01
8.926408585E+00  1.258971882E+01
8.932984208E+00  1.364243507E+01
8.939559831E+00  1.306664371E+01
8.946135455E+00  1.352793217E+01
8.952711078E+00  1.269823837E+01
8.959286701E+00  1.180662823E+01
8.965862324E+00  1.237123299E+01
8.972437948E+00  1.523342514E+01
8.979013571E+00  1.687031746E+01
8.985589194E+00  1.653246498E+01
8.992164818E+00  1.481172466E+01
8.998740441E+00  1.441811848E+01
9.005316064E+00  1.658901215E+01
9.011891687E+00  1.783911133E+01
9.018467311E+00  1.942872238E+01
9.025042934E+00  2.255028343E+01
9.031618557E+00  2.467210579E+01
9.038194180E+00  2.634550667E+01
9.044769804E+00  2.637863159E+01
9.051345427E+00  2.667777634E+01
9.057921050E+00  2.691777992E+01
9.064496673E+00  2.796830559E+01
9.071072297E+00  2.971414948E+01
9.077647920E+00  3.051520538E+01
9.084223543E+00  3.104776573E+01
9.090799167E+00  3.155990219E+01
9.097374790E+00  3.371667099E+01
9.103950413E+00  3.627053070E+01
9.110526036E+00  3.857599258E+01
9.117101660E+00  4.179957199E+01
9.123677283E+00  4.454528046E+01
9.130252906E+00  4.818130112E+01
9.136828529E+00  5.174133301E+01
9.143404153E+00  5.622782135E+01
9.149979776E+00  5.866080093E+01
9.156555399E+00  6.152514648E+01
9.163131022E+00  6.374859619E+01
9.169706646E+00  6.714757538E+01
9.176282269E+00  6.846280670E+01
9.182857892E+00  7.028952789E+01
9.189433516E+00  7.152277374E+01
9.196009139E+00  7.197310638E+01
9.202584762E+00  7.095890808E+01
9.209160385E+00  6.916475677E+01
9.215736009E+00  6.725035858E+01
9.222311632E+00  6.702091217E+01
9.228887255E+00  6.614636993E+01
9.235462878E+00  6.441337585E+01
9.242038502E+00  6.245771408E+01
9.248614125E+00  6.035314560E+01
9.255189748E+00  5.786338425E+01
9.261765372E+00  5.561054230E+01
9.268340995E+00  5.370549774E+01
9.274916618E+00  5.079917908E+01
9.281492241E+00  4.836233139E+01
9.288067865E+00  4.801609802E+01
9.294643488E+00  4.761941528E+01
9.301219111E+00  4.796773911E+01
9.307794734E+00  4.871200180E+01
9.314370358E+00  5.042989349E+01
9.320945981E+00  5.359655380E+01
9.327521604E+00  5.727258301E+01
9.334097227E+00  6.112209702E+01
9.340672851E+00  6.631114960E+01
9.347248474E+00  7.278706360E+01
9.353824097E+00  8.158502960E+01
9.360399721E+00  9.231984711E+01
9.366975344E+00  1.064095154E+02
9.373550967E+00  1.235737991E+02
9.380126590E+00  1.428200684E+02
9.386702214E+00  1.661131897E+02
9.393277837E+00  1.953799438E+02
9.399853460E+00  2.315324860E+02
9.406429083E+00  2.733052063E+02
9.413004707E+00  3.129241943E+02
9.419580330E+00  3.506023560E+02
9.426155953E+00  3.817268982E+02
9.432731576E+00  4.176557922E+02
9.439307200E+00  4.451409302E+02
9.445882823E+00  4.835705566E+02
9.452458446E+00  5.053718872E+02
9.459034070E+00  5.288803711E+02
9.465609693E+00  5.309104614E+02
9.472185316E+00  5.083142090E+02
9.478760939E+00  4.686985168E+02
9.485336563E+00  4.179154663E+02
9.491912186E+00  3.558624573E+02
9.498487809E+00  3.111777039E+02
9.505063432E+00  2.683967896E+02
9.511639056E+00  2.351759949E+02
9.518214679E+00  2.086143951E+02
9.524790302E+00  1.874937286E+02
9.531365925E+00  1.701528473E+02
9.537941549E+00  1.560956421E+02
9.544517172E+00  1.450100708E+02
9.551092795E+00  1.376881256E+02
9.557668419E+00  1.325843811E+02
9.564244042E+00  1.301397552E+02
9.570819665E+00  1.293053894E+02
9.577395288E+00  1.298508148E+02
9.583970912E+00  1.322804413E+02
9.590546535E+00  1.383920746E+02
9.597122158E+00  1.449157257E+02
9.603697781E+00  1.523098907E+02
9.610273405E+00  1.580647736E+02
9.616849028E+00  1.644953461E+02
9.623424651E+00  1.687002563E+02
9.630000274E+00  1.719460754E+02
9.636575898E+00  1.742704315E+02
9.643151521E+00  1.753623047E+02
9.649727144E+00  1.755263824E+02
9.656302768E+00  1.737875824E+02
9.662878391E+00  1.706674042E+02
9.669454014E+00  1.668235626E+02
9.676029637E+00  1.614113617E+02
9.682605261E+00  1.554776764E+02
9.689180884E+00  1.478477325E+02
9.695756507E+00  1.399189758E+02
9.702332130E+00  1.308936005E+02
9.708907754E+00  1.233531418E+02
9.715483377E+00  1.166574783E+02
9.722059000E+00  1.099482193E+02
9.728634623E+00  1.030534973E+02
9.735210247E+00  9.540788269E+01
9.741785870E+00  8.898990631E+01
9.748361493E+00  8.350903320E+01
9.754937117E+00  7.740422821E+01
9.761512740E+00  7.238203430E+01
9.768088363E+00  6.761675262E+01
9.774663986E+00  6.230320740E+01
9.781239610E+00  5.713718033E+01
9.787815233E+00  5.235987091E+01
9.794390856E+00  4.892487717E+01
9.800966479E+00  4.513148499E+01
9.807542103E+00  4.174530792E+01
9.814117726E+00  3.841572571E+01
9.820693349E+00  3.550306320E+01
9.827268972E+00  3.475972748E+01
9.833844596E+00  3.386293793E+01
9.840420219E+00  3.243521500E+01
9.846995842E+00  2.936177063E+01
9.853571466E+00  2.658153534E+01
9.860147089E+00  2.310423088E+01
9.866722712E+00  2.106018829E+01
9.873298335E+00  2.054994774E+01
9.879873959E+00  2.252708244E+01
9.886449582E+00  2.440170288E+01
9.893025205E+00  2.528851128E+01
9.899600828E+00  2.703267479E+01
9.906176452E+00  2.850524902E+01
9.912752075E+00  3.100940704E+01
9.919327698E+00  3.299970245E+01
9.925903321E+00  3.536768723E+01
9.932478945E+00  3.857865906E+01
9.939054568E+00  4.155640793E+01
9.945630191E+00  4.301817703E+01
9.952205815E+00  4.487115860E+01
9.958781438E+00  4.848738861E+01
9.965357061E+00  5.307093811E+01
9.971932684E+00  5.863349533E+01
9.978508308E+00  6.487181091E+01
9.985083931E+00  7.056319427E+01
9.991659554E+00  7.520568085E+01
9.998235177E+00  8.073381805E+01
1.000481080E+01  8.803087616E+01
1.001138642E+01  9.607389832E+01
1.001796205E+01  1.037891235E+02
1.002453767E+01  1.113196182E+02
1.003111329E+01  1.187088242E+02
1.003768892E+01  1.258580933E+02
1.004426454E+01  1.331541290E+02
1.005084016E+01  1.409748535E+02
1.005741579E+01  1.476771851E+02
1.006399141E+01  1.535013733E+02
1.007056703E+01  1.588179779E+02
1.007714266E+01  1.647637329E+02
1.008371828E+01  1.692023926E+02
1.009029390E+01  1.729200897E+02
1.009686953E+01  1.742815247E+02
1.010344515E+01  1.731334076E+02
1.011002077E+01  1.700728607E+02
1.011659640E+01  1.647468567E+02
1.012317202E+01  1.595342712E+02
1.012974764E+01  1.531758270E+02
1.013632327E+01  1.452969818E+02
1.014289889E+01  1.371384430E+02
1.014947451E+01  1.292475281E+02
1.015605014E+01  1.214870148E+02
1.016262576E+01  1.123988647E+02
1.016920138E+01  1.036705399E+02
1.017577701E+01  9.601245117E+01
1.018235263E+01  8.997193146E+01
1.018892825E+01  8.289414978E+01
1.019550388E+01  7.739185333E+01
1.020207950E+01  7.112174225E+01
1.020865512E+01  6.520875549E+01
1.021523075E+01  6.084718704E+01
1.022180637E+01  5.617614365E+01
1.022838199E+01  5.289478302E+01
1.023495762E+01  4.977307129E+01
1.024153324E+01  4.639005661E+01
1.024810886E+01  4.261774826E+01
1.025468448E+01  3.983987045E+01
1.026126011E+01  3.914230728E+01
1.026783573E+01  3.936337280E+01
1.027441135E+01  3.946052170E+01
1.028098698E+01  3.972960281E+01
1.028756260E+01  4.084925461E+01
1.029413822E+01  4.049911499E+01
1.030071385E+01  4.068448639E+01
1.030728947E+01  3.972221375E+01
1.031386509E+01  3.932756805E+01
1.032044072E+01  3.888428879E+01
1.032701634E+01  3.739719772E+01
1.033359196E+01  3.715922165E+01
1.034016759E+01  3.636806107E+01
1.034674321E+01  3.592748260E+01
1.035331883E+01  3.610306549E+01
1.035989446E+01  3.565697098E+01
1.036647008E+01  3.452569199E+01
1.037304570E+01  3.345186615E+01
1.037962133E+01  3.379532242E+01
1.038619695E+01  3.385925293E+01
1.039277257E+01  3.320173645E+01
1.039934820E+01  3.288524628E+01
1.040592382E+01  3.321102905E+01
1.041249944E+01  3.277916718E+01
1.041907507E+01  3.211014175E+01
1.042565069E+01  3.125667572E+01
1.043222631E+01  3.008691597E+01
1.043880194E+01  2.892555618E+01
1.044537756E+01  2.833703804E+01
1.045195318E+01  2.789263916E+01
1.045852881E+01  2.804351807E+01
1.046510443E+01  2.819591904E+01
1.047168005E+01  2.823947716E+01
1.047825568E+01  2.784117317E+01
1.048483130E+01  2.603908348E+01
1.049140692E+01  2.364081383E+01
1.049798255E+01  2.084068489E+01
1.050455817E+01  1.867627907E+01
1.051113379E+01  1.702746582E+01
1.051770942E+01  1.828338432E+01
1.052428504E+01  1.842643547E+01
1.053086066E+01  1.810357094E+01
1.053743629E+01  1.679523087E+01
1.054401191E+01  1.544181538E+01
1.055058753E+01  1.442952442E+01
1.055716316E+01  1.240675831E+01
1.056373878E+01  1.215472889E+01
1.057031440E+01  1.125786591E+01
1.057689002E+01  1.084893608E+01
1.058346565E+01  9.778964043E+00
1.059004127E+01  1.032719231E+01
1.059661689E+01  9.897373199E+00
1.060319252E+01  9.285832405E+00
1.060976814E+01  8.581863403E+00
1.061634376E+01  8.040767670E+00
1.062291939E+01  7.358766556E+00
1.062949501E+01  5.759418488E+00
1.063607063E+01  5.297824383E+00
1.064264626E+01  6.585233688E+00
1.064922188E+01  9.086898804E+00
1.065579750E+01  1.089844036E+01
1.066237313E+01  1.083129787E+01
1.066894875E+01  1.041029072E+01
1.067552437E+01  1.026960850E+01
1.068210000E+01  1.122850323E+01
1.068867562E+01  1.142702389E+01
1.069525124E+01  1.134067249E+01
1.070182687E+01  1.083899021E+01
1.070840249E+01  1.039259911E+01
1.071497811E+01  1.129047680E+01
1.072155374E+01  1.205598164E+01
1.072812936E+01  1.160163116E+01
1.073470498E+01  9.004011154E+00
1.074128061E+01  7.671250820E+00
1.074785623E+01  6.553964138E+00
1.075443185E+01  6.068100452E+00
1.076100748E+01  5.199925423E+00
1.076758310E+01  4.470376492E+00
1.077415872E+01  3.635259628E+00
1.078073435E+01  4.702336788E+00
1.078730997E+01  4.744806290E+00
1.079388559E+01  4.419365883E+00
1.080046122E+01  3.916410208E+00
1.080703684E+01  3.015694857E+00
1.081361246E+01  3.171784878E+00
1.082018809E+01  2.654680014E+00
1.082676371E+01  9.741314650E-01
1.083333933E+01  -5.798311830E-01
1.083991496E+01  2.261862010E-01
1.084649058E+01  1.682711482E+00
1.085306620E+01  2.598343611E+00
1.085964183E+01  2.280221701E+00
1.086621745E+01  3.240566969E+00
1.087279307E+01  3.881253242E+00
1.087936870E+01  4.766268730E+00
1.088594432E+01  4.634896755E+00
1.089251994E+01  4.751327515E+00
1.089909556E+01  3.523308754E+00
1.090567119E+01  3.785349131E+00
1.091224681E+01  3.111705542E+00
1.091882243E+01  3.559547424E+00
1.092539806E+01  2.526866436E+00
1.093197368E+01  1.922398210E+00
1.093854930E+01  1.095308781E+00
1.094512493E+01  8.923239112E-01
1.095170055E+01  4.843887687E-01
1.095827617E+01  7.992845774E-01
1.096485180E+01  9.034642577E-01
1.097142742E+01  9.185563326E-01
1.097800304E+01  2.326540232E+00
1.098457867E+01  3.870624304E+00
1.099115429E+01  4.176341057E+00
1.099772991E+01  3.159747839E+00
1.100430554E+01  2.423424244E+00
1.101088116E+01  2.055299520E+00
1.101745678E+01  2.280019760E+00
1.102403241E+01  3.386681795E+00
1.103060803E+01  4.222486019E+00
1.103718365E+01  3.860703707E+00
1.104375928E+01  3.960054159E+00
1.105033490E+01  3.666558266E+00
1.105691052E+01  2.905042410E+00
1.106348615E+01  1.724354625E+00
1.107006177E+01  1.497070789E+00
1.107663739E+01  1.304260015E+00
1.108321302E+01  2.626891613E+00
1.108978864E+01  3.672983170E+00
1.109636426E+01  5.681311607E+00
1.110293989E+01  6.037137032E+00
1.110951551E+01  5.946028233E+00
1.111609113E+01  3.611601353E+00
1.112266676E+01  3.585613251E+00
1.112924238E+01  3.498921871E+00
1.113581800E+01  3.230430841E+00
1.114239363E+01  3.513045788E+00
1.114896925E+01  4.654867649E+00
1.115554487E+01  5.802374840E+00
1.116212050E+01  6.474115372E+00
1.116869612E+01  6.470375538E+00
1.117527174E+01  7.961070538E+00
1.118184737E+01  9.494533539E+00
1.118842299E+01  1.005366707E+01
1.119499861E+01  9.809850693E+00
1.120157424E+01  8.694721222E+00
1.120814986E+01  7.874775410E+00
1.121472548E+01  7.772861004E+00
1.122130111E+01  8.508114815E+00
1.122787673E+01  8.380339622E+00
1.123445235E+01  9.009160995E+00
1.124102797E+01  7.714892864E+00
1.124760360E+01  6.549293518E+00
1.125417922E+01  5.610021591E+00
1.126075484E+01  6.229111671E+00
1.126733047E+01  5.026686192E+00
1.127390609E+01  4.530095577E+00
1.128048171E+01  5.329679966E+00
1.128705734E+01  6.599276066E+00
1.129363296E+01  7.945828438E+00
1.130020858E+01  8.400110245E+00
1.130678421E+01  9.569068909E+00
1.131335983E+01  9.125081062E+00
1.131993545E+01  8.557420731E+00
1.132651108E+01  7.345596313E+00
1.133308670E+01  6.883178711E+00
1.133966232E+01  6.552999020E+00
1.134623795E+01  7.613864899E+00
1.135281357E+01  9.086303711E+00
1.135938919E+01  1.028966999E+01
1.136596482E+01  1.057408237E+01
1.137254044E+01  1.191563416E+01
1.137911606E+01  1.092665100E+01
1.138569169E+01  8.525121689E+00
1.139226731E+01  7.374639511E+00
1.139884293E+01  6.854132175E+00
1.140541856E+01  7.397211552E+00
1.141199418E+01  7.321768761E+00
1.141856980E+01  7.746962070E+00
1.142514543E+01  5.925251484E+00
1.143172105E+01  5.892786026E+00
1.143829667E+01  7.614915371E+00
1.144487230E+01  9.384135246E+00
1.145144792E+01  1.032106590E+01
1.145802354E+01  1.086664009E+01
1.146459917E+01  1.053161335E+01
1.147117479E+01  9.641192436E+00
1.147775041E+01  9.210038185E+00
1.148432604E+01  8.912965775E+00
1.149090166E+01  9.532700539E+00
1.149747728E+01  1.077579498E+01
1.150405291E+01  1.170182705E+01
1.151062853E+01  1.094996548E+01
1.151720415E+01  1.018525696E+01
1.152377978E+01  1.002489471E+01
1.153035540E+01  9.668105125E+00
1.153693102E+01  1.077065563E+01
1.154350665E+01  1.138333321E+01
1.155008227E+01  1.219608402E+01
1.155665789E+01  1.228118038E+01
1.156323351E+01  1.396186924E+01
1.156980914E+01  1.544323540E+01
1.157638476E+01  1.642401314E+01
1.158296038E+01  1.646475601E+01
1.158953601E+01  1.768656349E+01
1.159611163E+01  1.844198418E+01
1.160268725E+01  1.984039688E+01
1.160926288E+01  1.883737564E+01
1.161583850E+01  1.637629128E+01
1.162241412E+01  1.396056843E+01
1.162898975E+01  1.389636993E+01
1.163556537E+01  1.496886253E+01
1.164214099E+01  1.644319534E+01
1.164871662E+01  1.697172165E+01
1.165529224E+01  1.672828484E+01
1.166186786E+01  1.581299591E+01
1.166844349E+01  1.620975494E+01
1.167501911E+01  1.728088570E+01
1.168159473E+01  1.688382339E+01
1.168817036E+01  1.638821411E+01
1.169474598E+01  1.578040600E+01
1.170132160E+01  1.599742889E+01
1.170789723E+01  1.587279701E+01
1.171447285E+01  1.542508602E+01
1.172104847E+01  1.644338036E+01
1.172762410E+01  1.733980751E+01
1.173419972E+01  1.700111008E+01
1.174077534E+01  1.550396824E+01
1.174735097E+01  1.321217537E+01
1.175392659E+01  1.213014698E+01
1.176050221E+01  1.172909832E+01
1.176707784E+01  1.071998882E+01
1.177365346E+01  1.162871933E+01
1.178022908E+01  1.179027271E+01
1.178680471E+01  1.349568748E+01
1.179338033E+01  1.482896996E+01
1.179995595E+01  1.423691845E+01
1.180653158E+01  1.270685863E+01
1.181310720E+01  1.102982712E+01
1.181968282E+01  1.004763985E+01
1.182625845E+01  9.433657646E+00
1.183283407E+01  9.803621292E+00
1.183940969E+01  9.579912186E+00
1.184598532E+01  9.154637337E+00
1.185256094E+01  1.003611469E+01
1.185913656E+01  9.913814545E+00
1.186571219E+01  1.048989964E+01
1.187228781E+01  1.081028271E+01
1.187886343E+01  1.102829933E+01
1.188543906E+01  1.100577927E+01
1.189201468E+01  1.172173882E+01
1.189859030E+01  1.296866989E+01
1.190516592E+01  1.437939835E+01
1.191174155E+01  1.637922668E+01
1.191831717E+01  1.745156479E+01
1.192489279E+01  1.873900032E+01
1.193146842E+01  1.803549004E+01
1.193804404E+01  1.651633453E+01
1.194461966E+01  1.580215073E+01
1.195119529E+01  1.583972454E+01
1.195777091E+01  1.556314659E+01
1.196434653E+01  1.577223110E+01
1.197092216E+01  1.517011356E+01
1.197749778E+01  1.489352131E+01
1.198407340E+01  1.543611622E+01
1.199064903E+01  1.547564316E+01
1.199722465E+01  1.570156670E+01
1.200380027E+01  1.584192276E+01
1.201037590E+01  1.646801376E+01
1.201695152E+01  1.773952103E+01
1.202352714E+01  1.972676468E+01
1.203010277E+01  2.018904114E+01
1.203667839E+01  1.974061775E+01
1.204325401E+01  2.003092384E+01
1.204982964E+01  1.958194733E+01
1.205640526E+01  1.983804321E+01
1.206298088E+01  1.891006279E+01
1.206955651E+01  1.765300751E+01
1.207613213E+01  1.694873047E+01
1.208270775E+01  1.567859840E+01
1.208928338E+01  1.442661381E+01
1.209585900E+01  1.306291580E+01
1.210243462E+01  1.332629299E+01
1.210901025E+01  1.329049778E+01
1.211558587E+01  1.382225132E+01
1.212216149E+01  1.372528648E+01
1.212873712E+01  1.487169552E+01
1.213531274E+01  1.458279037E+01
1.214188836E+01  1.516279507E+01
1.214846399E+01  1.567423058E+01
1.215503961E+01  1.614446449E+01
1.216161523E+01  1.453153038E+01
1.216819086E+01  1.484179688E+01
1.217476648E+01  1.502206421E+01
1.218134210E+01  1.377890015E+01
1.218791773E+01  1.201955223E+01
1.219449335E+01  1.196816540E+01
1.220106897E+01  1.205542469E+01
1.220764460E+01  1.172812939E+01
1.221422022E+01  1.260348892E+01
1.222079584E+01  1.392175579E+01
1.222737146E+01  1.459017849E+01
1.223394709E+01  1.413318825E+01
1.224052271E+01  1.399611759E+01
1.224709833E+01  1.237478447E+01
1.225367396E+01  1.178775978E+01
1.226024958E+01  1.183467007E+01
1.226682520E+01  1.293740368E+01
1.227340083E+01  1.346511745E+01
1.227997645E+01  1.378989506E+01
1.228655207E+01  1.382581139E+01
1.229312770E+01  1.430774212E+01
1.229970332E+01  1.362437057E+01
1.230627894E+01  1.427082443E+01
1.231285457E+01  1.556596088E+01
1.231943019E+01  1.649709511E+01
1.232600581E+01  1.715407944E+01
1.233258144E+01  1.812530136E+01
1.233915706E+01  1.870520210E+01
1.234573268E+01  1.899681664E+01
1.235230831E+01  1.837564087E+01
1.235888393E+01  1.835584068E+01
1.236545955E+01  2.006144714E+01
1.237203518E+01  2.166531944E+01
1.237861080E+01  2.193552971E+01
1.238518642E+01  2.203126335E+01
1.239176205E+01  2.138465881E+01
1.239833767E+01  2.118761635E+01
1.240491329E+01  2.188154984E+01
1.241148892E+01  2.333121109E+01
1.241806454E+01  2.401610374E+01
1.242464016E+01  2.430488586E+01
1.243121579E+01  2.547735405E+01
1.243779141E+01  2.553986168E+01
1.244436703E+01  2.594115257E+01
1.245094266E+01  2.686238670E+01
1.245751828E+01  2.883971214E+01
1.246409390E+01  3.164510918E+01
1.247066953E+01  3.383279037E+01
1.247724515E+01  3.429974365E+01
1.248382077E+01  3.500300980E+01
1.249039640E+01  3.611740875E+01
1.249697202E+01  3.762538147E+01
1.250354764E+01  3.755818939E+01
1.251012327E+01  3.726692200E+01
1.251669889E+01  3.901234055E+01
1.252327451E+01  4.046780014E+01
1.252985014E+01  4.121437454E+01
1.253642576E+01  4.221496582E+01
1.254300138E+01  4.205895615E+01
1.254957700E+01  4.211500931E+01
1.255615263E+01  4.147249603E+01
1.256272825E+01  4.211630630E+01
1.256930387E+01  4.160602570E+01
1.257587950E+01  4.129664612E+01
1.258245512E+01  4.064034271E+01
1.258903074E+01  3.916105270E+01
1.259560637E+01  3.951700211E+01
1.260218199E+01  3.939277267E+01
1.260875761E+01  4.032256317E+01
1.261533324E+01  3.996263504E+01
1.262190886E+01  4.136135101E+01
1.262848448E+01  4.223454285E+01
1.263506011E+01  4.349286652E+01
1.264163573E+01  4.418955994E+01
1.264821135E+01  4.465959549E+01
1.265478698E+01  4.411392212E+01
1.266136260E+01  4.370196533E+01
1.266793822E+01  4.287490845E+01
1.267451385E+01  4.304828644E+01
1.268108947E+01  4.291107178E+01
1.268766509E+01  4.333338928E+01
1.269424072E+01  4.522442627E+01
1.270081634E+01  4.792402649E+01
1.270739196E+01  4.988483810E+01
1.271396759E+01  5.096428680E+01
1.272054321E+01  5.139576721E+01
1.272711883E+01  5.276864243E+01
1.273369446E+01  5.441982651E+01
1.274027008E+01  5.635078430E+01
1.274684570E+01  5.848485565E+01
1.275342133E+01  5.908278656E+01
1.275999695E+01  5.999467468E+01
1.276657257E+01  5.960478973E+01
1.277314820E+01  5.907036209E+01
1.277972382E+01  5.905593872E+01
1.278629944E+01  6.221533203E+01
1.279287507E+01  6.470966339E+01
1.279945069E+01  6.505603027E+01
1.280602631E+01  6.530276489E+01
1.281260194E+01  6.580582428E+01
1.281917756E+01  6.491042328E+01
1.282575318E+01  6.291001892E+01
1.283232881E+01  6.123918152E+01
1.283890443E+01  5.984175110E+01
1.284548005E+01  5.939840317E+01
1.285205568E+01  5.862543488E+01
1.285863130E+01  5.669131470E+01
1.286520692E+01  5.447787476E+01
1.287178255E+01  5.302613449E+01
1.287835817E+01  5.169498444E+01
1.288493379E+01  5.003081512E+01
1.289150941E+01  4.968841553E+01
1.289808504E+01  4.873761368E+01
1.290466066E+01  4.794404221E+01
1.291123628E+01  4.498836899E+01
1.291781191E+01  4.444530869E+01
1.292438753E+01  4.293791580E+01
1.293096315E+01  4.112440109E+01
1.293753878E+01  3.947742462E+01
1.294411440E+01  3.830657578E+01
1.295069002E+01  3.599222565E+01
1.295726565E+01  3.378194427E+01
1.296384127E+01  3.205513382E+01
1.297041689E+01  2.925907516E+01
1.297699252E+01  2.739182091E+01
1.298356814E+01  2.601832390E+01
1.299014376E+01  2.646866798E+01
1.299671939E+01  2.752265358E+01
1.300329501E+01  2.667003059E+01
1.300987063E+01  2.575456238E+01
1.301644626E+01  2.424402809E+01
1.302302188E+01  2.354419899E+01
1.302959750E+01  2.300762367E+01
1.303617313E+01  2.063088608E+01
1.304274875E+01  1.941155624E+01
1.304932437E+01  1.921682739E+01
1.305590000E+01  1.918830109E+01
1.306247562E+01  1.925665283E+01
1.306905124E+01  1.801562881E+01
1.307562687E+01  1.704287529E+01
1.308220249E+01  1.642920876E+01
1.308877811E+01  1.643781853E+01
1.309535374E+01  1.756967735E+01
1.310192936E+01  1.854500008E+01
1.310850498E+01  1.948487854E+01
1.311508061E+01  1.963687134E+01
1.312165623E+01  2.069091225E+01
1.312823185E+01  2.102834892E+01
1.313480748E+01  2.102856636E+01
1.314138310E+01  2.143960762E+01
1.314795872E+01  2.211937904E+01
1.315453435E+01  2.329345322E+01
1.316110997E+01  2.526407433E+01
1.316768559E+01  2.738084030E+01
1.317426122E+01  2.890888023E+01
1.318083684E+01  3.100980568E+01
1.318741246E+01  3.251905441E+01
1.319398809E+01  3.558457184E+01
1.320056371E+01  3.825028610E+01
1.320713933E+01  3.948250198E+01
1.321371495E+01  4.144234085E+01
1.322029058E+01  4.575039673E+01
1.322686620E+01  4.841105652E+01
1.323344182E+01  5.207421112E+01
1.324001745E+01  5.553477478E+01
1.324659307E+01  5.979420471E+01
1.325316869E+01  6.412641907E+01
1.325974432E+01  7.072379303E+01
1.326631994E+01  7.790564728E+01
1.327289556E+01  8.584239960E+01
1.327947119E+01  9.425815582E+01
1.328604681E+01  1.038418808E+02
1.329262243E+01  1.133079147E+02
1.329919806E+01  1.249360580E+02
1.330577368E+01  1.358234558E+02
1.331234930E+01  1.470502014E+02
1.331892493E+01  1.579102325E+02
1.332550055E+01  1.712487488E+02
1.333207617E+01  1.861072693E+02
1.333865180E+01  2.023334656E+02
1.334522742E+01  2.194927368E+02
1.335180304E+01  2.355601959E+02
1.335837867E+01  2.503214874E+02
1.336495429E+01  2.617248840E+02
1.337152991E+01  2.713513794E+02
1.337810554E+01  2.770125732E+02
1.338468116E+01  2.798485718E+02
1.339125678E+01  2.800644531E+02
1.339783241E+01  2.778599243E+02
1.340440803E+01  2.728497314E+02
1.341098365E+01  2.645798035E+02
1.341755928E+01  2.505838470E+02
1.342413490E+01  2.331215820E+02
1.343071052E+01  2.137135620E+02
1.343728615E+01  1.957332916E+02
1.344386177E+01  1.761065826E+02
1.345043739E+01  1.600057831E+02
1.345701302E+01  1.449694824E+02
1.346358864E+01  1.326846771E+02
1.347016426E+01  1.210039215E+02
1.347673989E+01  1.098363876E+02
1.348331551E+01  9.918695831E+01
1.348989113E+01  9.078414917E+01
1.349646676E+01  8.366115570E+01
1.350304238E+01  7.642686462E+01
1.350961800E+01  6.953634644E+01
1.351619363E+01  6.305503082E+01
1.352276925E+01  5.788232040E+01
1.352934487E+01  5.318422318E+01
1.353592050E+01  4.879715729E+01
1.354249612E+01  4.379240799E+01
1.354907174E+01  4.066410065E+01
1.355564736E+01  3.783849335E+01
1.356222299E+01  3.512954330E+01
1.356879861E+01  3.274914932E+01
1.357537423E+01  2.979642487E+01
1.358194986E+01  2.817809105E+01
1.358852548E+01  2.770321655E+01
1.359510110E+01  2.632247353E+01
1.360167673E+01  2.415498543E+01
1.360825235E+01  2.118902206E+01
1.361482797E+01  1.977173615E+01
1.362140360E+01  1.860623741E+01
1.362797922E+01  1.934778404E+01
1.363455484E+01  1.841384506E+01
1.364113047E+01  1.822871971E+01
1.364770609E+01  1.754874229E+01
1.365428171E+01  1.846081543E+01
1.366085734E+01  1.850008202E+01
1.366743296E+01  1.812746620E+01
1.367400858E+01  1.706756401E+01
1.368058421E+01  1.697417450E+01
1.368715983E+01  1.715051079E+01
1.369373545E+01  1.603552437E+01
1.370031108E+01  1.410186672E+01
1.370688670E+01  1.393399811E+01
1.371346232E+01  1.434832001E+01
1.372003795E+01  1.470322418E+01
1.372661357E+01  1.551725674E+01
1.373318919E+01  1.628113937E+01
1.373976482E+01  1.722093773E+01
1.374634044E+01  1.787473679E+01
1.375291606E+01  1.917319679E+01
1.375949169E+01  2.083262634E+01
1.376606731E+01  2.191210365E+01
1.377264293E+01  2.168506813E+01
1.377921856E+01  2.021108627E+01
1.378579418E+01  1.942229080E+01
1.379236980E+01  1.870930672E+01
1.379894543E+01  1.793053055E+01
1.380552105E+01  1.899807549E+01
1.381209667E+01  1.976545906E+01
1.381867230E+01  2.079713631E+01
1.382524792E+01  2.189291000E+01
1.383182354E+01  2.386772537E+01
1.383839917E+01  2.449795151E+01
1.384497479E+01  2.492958450E+01
1.385155041E+01  2.592922592E+01
1.385812604E+01  2.841679955E+01
1.386470166E+01  2.938497925E+01
1.387127728E+01  2.962868500E+01
1.387785290E+01  3.085543823E+01
1.388442853E+01  3.379032898E+01
1.389100415E+01  3.680787277E+01
1.389757977E+01  3.860630035E+01
1.390415540E+01  4.025983429E+01
1.391073102E+01  4.472207260E+01
1.391730664E+01  4.903403091E+01
1.392388227E+01  5.210927200E+01
1.393045789E+01  5.290530777E+01
1.393703351E+01  5.411011887E+01
1.394360914E+01  5.457525635E+01
1.395018476E+01  5.509514236E+01
1.395676038E+01  5.549349594E+01
1.396333601E+01  5.627664566E+01
1.396991163E+01  5.743628693E+01
1.397648725E+01  5.893333435E+01
1.398306288E+01  5.903876877E+01
1.398963850E+01  6.036927795E+01
1.399621412E+01  6.026810837E+01
1.400278975E+01  6.034802628E+01
1.400936537E+01  5.965443420E+01
1.401594099E+01  5.950811005E+01
1.402251662E+01  5.871812057E+01
1.402909224E+01  5.625514603E+01
1.403566786E+01  5.301175308E+01
1.404224349E+01  5.074133682E+01
1.404881911E+01  4.823587418E+01
1.405539473E+01  4.840647507E+01
1.406197036E+01  4.920332718E+01
1.406854598E+01  5.003411865E+01
1.407512160E+01  4.827871704E+01
1.408169723E+01  4.613340378E+01
1.408827285E+01  4.379590988E+01
1.409484847E+01  4.157970047E+01
1.410142410E+01  3.972890091E+01
1.410799972E+01  3.808480453E+01
1.411457534E+01  3.598725128E+01
1.412115097E+01  3.380682755E+01
1.412772659E+01  3.277741241E+01
1.413430221E+01  3.158259010E+01
1.414087784E+01  3.146649551E+01
1.414745346E+01  3.162833595E+01
1.415402908E+01  3.066087914E+01
1.416060471E+01  2.880728531E+01
1.416718033E+01  2.823747063E+01
1.417375595E+01  2.787037659E+01
1.418033158E+01  2.725678062E+01
1.418690720E+01  2.677167892E+01
1.419348282E+01  2.606009102E+01
1.420005844E+01  2.523627281E+01
1.420663407E+01  2.481145287E+01
1.421320969E+01  2.542430496E+01
1.421978531E+01  2.658605576E+01
1.422636094E+01  2.525520134E+01
1.423293656E+01  2.365537643E+01
1.423951218E+01  2.301753807E+01
1.424608781E+01  2.229041672E+01
1.425266343E+01  2.269715500E+01
1.425923905E+01  2.295162010E+01
1.426581468E+01  2.146006012E+01
1.427239030E+01  2.085773087E+01
1.427896592E+01  2.176230240E+01
1.428554155E+01  2.308393097E+01
1.429211717E+01  2.398276711E+01
1.429869279E+01  2.434455109E+01
1.430526842E+01  2.329623032E+01
1.431184404E+01  2.239248657E+01
1.431841966E+01  2.303760910E+01
1.432499529E+01  2.342836952E+01
1.433157091E+01  2.323370171E+01
1.433814653E+01  2.278856087E+01
1.434472216E+01  2.281119728E+01
1.435129778E+01  2.191048241E+01
1.435787340E+01  2.145603752E+01
1.436444903E+01  2.105771255E+01
1.437102465E+01  2.228824234E+01
1.437760027E+01  2.276626968E+01
1.438417590E+01  2.253523254E+01
1.439075152E+01  2.173330116E+01
1.439732714E+01  2.102305222E+01
1.440390277E+01  2.085320282E+01
1.441047839E+01  2.126523590E+01
1.441705401E+01  1.985630226E+01
1.442362964E+01  1.817618752E+01
1.443020526E+01  1.831227684E+01
1.443678088E+01  1.699941444E+01
1.444335651E+01  1.505740547E+01
1.444993213E+01  1.381484413E+01
1.445650775E+01  1.422630310E+01
1.446308338E+01  1.549293613E+01
1.446965900E+01  1.673386765E+01
1.447623462E+01  1.800425529E+01
1.448281025E+01  1.930896759E+01
1.448938587E+01  2.011966896E+01
1.449596149E+01  2.096857262E+01
1.450253712E+01  2.175751686E+01
1.450911274E+01  2.145670891E+01
1.451568836E+01  2.028195572E+01
1.452226399E+01  1.902133560E+01
1.452883961E+01  1.797659302E+01
1.453541523E+01  1.740797997E+01
1.454199085E+01  1.855230141E+01
1.454856648E+01  1.987586403E+01
1.455514210E+01  2.002417183E+01
1.456171772E+01  1.966079521E+01
1.456829335E+01  1.909823036E+01
1.457486897E+01  1.871636581E+01
1.458144459E+01  1.788384819E+01
1.458802022E+01  1.632626915E+01
1.459459584E+01  1.440886497E+01
1.460117146E+01  1.417363071E+01
1.460774709E+01  1.483492756E+01
1.461432271E+01  1.603680229E+01
1.462089833E+01  1.665133095E+01
1.462747396E+01  1.754131508E+01
1.463404958E+01  1.940646553E+01
1.464062520E+01  1.884395790E+01
1.464720083E+01  1.807304001E+01
1.465377645E+01  1.701901054E+01
1.466035207E+01  1.642699242E+01
1.466692770E+01  1.690148926E+01
1.467350332E+01  1.776232910E+01
1.468007894E+01  1.889770126E+01
1.468665457E+01  1.992187309E+01
1.469323019E+01  1.902869606E+01
1.469980581E+01  1.803360558E+01
1.470638144E+01  1.775789642E+01
1.471295706E+01  1.777725220E+01
1.471953268E+01  1.753113365E+01
1.472610831E+01  1.713526344E+01
1.473268393E+01  1.752762985E+01
1.473925955E+01  1.881907654E+01
1.474583518E+01  1.823909378E+01
1.475241080E+01  1.657088280E+01
1.475898642E+01  1.646092796E+01
1.476556205E+01  1.563236904E+01
1.477213767E+01  1.684301567E+01
1.477871329E+01  1.557382011E+01
1.478528892E+01  1.551374245E+01
1.479186454E+01  1.547576618E+01
1.479844016E+01  1.661418152E+01
1.480501579E+01  1.720046425E+01
1.481159141E+01  1.822045135E+01
1.481816703E+01  1.886602783E+01
1.482474266E+01  1.862009621E+01
1.483131828E+01  1.785472107E+01
1.483789390E+01  1.803864479E+01
1.484446953E+01  1.784519958E+01
1.485104515E+01  1.721188164E+01
1.485762077E+01  1.626416969E+01
1.486419639E+01  1.588389683E+01
1.487077202E+01  1.539381123E+01
1.487734764E+01  1.337838268E+01
1.488392326E+01  1.277803707E+01
1.489049889E+01  1.417089748E+01
1.489707451E+01  1.445833206E+01
1.490365013E+01  1.574043846E+01
1.491022576E+01  1.624866295E+01
1.491680138E+01  1.521347809E+01
1.492337700E+01  1.527502537E+01
1.492995263E+01  1.563057709E+01
1.493652825E+01  1.529039478E+01
1.494310387E+01  1.576132298E+01
1.494967950E+01  1.505753231E+01
1.495625512E+01  1.413118362E+01
1.496283074E+01  1.302379513E+01
1.496940637E+01  1.345461941E+01
1.497598199E+01  1.335873222E+01
1.498255761E+01  1.386993980E+01
1.498913324E+01  1.447849560E+01
1.499570886E+01  1.503842449E+01
1.500228448E+01  1.392621136E+01
1.500886011E+01  1.258475018E+01
1.501543573E+01  1.209267712E+01
1.502201135E+01  1.163946819E+01
1.502858698E+01  1.213774776E+01
1.503516260E+01  1.245228481E+01
1.504173822E+01  1.223642540E+01
1.504831385E+01  1.244380760E+01
1.505488947E+01  1.263598061E+01
1.506146509E+01  1.298338127E+01
1.506804072E+01  1.233320045E+01
1.507461634E+01  1.092325687E+01
1.508119196E+01  9.494297981E+00
1.508776759E+01  8.527304649E+00
1.509434321E+01  8.597982407E+00
1.510091883E+01  1.157354259E+01
1.510749446E+01  1.239297104E+01
1.511407008E+01  1.185462666E+01
1.512064570E+01  1.107034779E+01
1.512722133E+01  1.140782642E+01
1.513379695E+01  1.156923008E+01
1.514037257E+01  1.140369511E+01
1.514694820E+01  1.196006489E+01
1.515352382E+01  1.225934982E+01
1.516009944E+01  1.133720684E+01
1.516667507E+01  1.003056240E+01
1.517325069E+01  9.660716057E+00
1.517982631E+01  9.033342361E+00
1.518640194E+01  8.933605194E+00
1.519297756E+01  8.823428154E+00
1.519955318E+01  8.019223213E+00
1.520612880E+01  7.510745049E+00
1.521270443E+01  6.787256718E+00
1.521928005E+01  6.615365982E+00
1.522585567E+01  7.250450134E+00
1.523243130E+01  9.636362076E+00
1.523900692E+01  1.079312706E+01
1.524558254E+01  1.165141487E+01
1.525215817E+01  1.212822437E+01
1.525873379E+01  1.226360130E+01
1.526530941E+01  1.181975937E+01
1.527188504E+01  1.069709682E+01
1.527846066E+01  9.825310707E+00
1.528503628E+01  1.072931290E+01
1.529161191E+01  1.135247326E+01
1.529818753E+01  1.205173779E+01
1.530476315E+01  1.178610325E+01
1.531133878E+01  1.209904099E+01
1.531791440E+01  1.190951347E+01
1.532449002E+01  1.205884552E+01
1.533106565E+01  1.157732868E+01
1.533764127E+01  1.208217239E+01
1.534421689E+01  1.253921604E+01
1.535079252E+01  1.332885551E+01
1.535736814E+01  1.444525433E+01
1.536394376E+01  1.527466965E+01
1.537051939E+01  1.587572098E+01
1.537709501E+01  1.712294960E+01
1.538367063E+01  1.839919472E+01
1.539024626E+01  1.844765282E+01
1.539682188E+01  1.910038376E+01
1.540339750E+01  1.895214844E+01
1.540997313E+01  1.976615906E+01
1.541654875E+01  2.046090698E+01
1.542312437E+01  2.192949295E+01
1.542970000E+01  2.246589279E+01
1.543627562E+01  2.220441628E+01
1.544285124E+01  2.090535164E+01
1.544942687E+01  2.027820396E+01
1.545600249E+01  2.092944717E+01
1.546257811E+01  2.231370544E+01
1.546915374E+01  2.425278282E+01
1.547572936E+01  2.572522545E+01
1.548230498E+01  2.765098572E+01
1.548888061E+01  2.903545570E+01
1.549545623E+01  3.158911324E+01
1.550203185E+01  3.375680923E+01
1.550860748E+01  3.594285583E+01
1.551518310E+01  3.757501221E+01
1.552175872E+01  3.942770767E+01
1.552833434E+01  4.218114471E+01
1.553490997E+01  4.519616699E+01
1.554148559E+01  4.867054749E+01
1.554806121E+01  5.333867645E+01
1.555463684E+01  5.848132324E+01
1.556121246E+01  6.484019470E+01
1.556778808E+01  7.149000549E+01
1.557436371E+01  7.777696228E+01
1.558093933E+01  8.368347168E+01
1.558751495E+01  9.000253296E+01
1.559409058E+01  9.670238495E+01
1.560066620E+01  1.051492615E+02
1.560724182E+01  1.154725418E+02
1.561381745E+01  1.268201904E+02
1.562039307E+01  1.387415161E+02
1.562696869E+01  1.511212769E+02
1.563354432E+01  1.650014801E+02
1.564011994E+01  1.815110321E+02
1.564669556E+01  2.005317688E+02
1.565327119E+01  2.199074249E+02
1.565984681E+01  2.419011993E+02
1.566642243E+01  2.656522522E+02
1.567299806E+01  2.896991577E+02
1.567957368E+01  3.132074585E+02
1.568614930E+01  3.333138733E+02
1.569272493E+01  3.553851013E+02
1.569930055E+01  3.719768372E+02
1.570587617E+01  3.841891785E+02
1.571245180E+01  3.858907776E+02
1.571902742E+01  3.792110291E+02
1.572560304E+01  3.703604431E+02
1.573217867E+01  3.568326416E+02
1.573875429E+01  3.417971191E+02
1.574532991E+01  3.222582397E+02
1.575190554E+01  2.999216309E+02
1.575848116E+01  2.778097534E+02
1.576505678E+01  2.557517395E+02
1.577163241E+01  2.353428345E+02
1.577820803E+01  2.167334442E+02
1.578478365E+01  2.002942047E+02
1.579135928E+01  1.856335297E+02
1.579793490E+01  1.733002777E+02
1.580451052E+01  1.620928192E+02
1.581108615E+01  1.502997589E+02
1.581766177E+01  1.410529480E+02
1.582423739E+01  1.331820068E+02
1.583081302E+01  1.244374542E+02
1.583738864E+01  1.132333679E+02
1.584396426E+01  1.042943878E+02
1.585053988E+01  9.694377136E+01
1.585711551E+01  9.053993988E+01
1.586369113E+01  8.303408813E+01
1.587026675E+01  7.648336029E+01
1.587684238E+01  7.198786926E+01
1.588341800E+01  6.907107544E+01
1.588999362E+01  6.530328369E+01
1.589656925E+01  6.215766907E+01
1.590314487E+01  6.120307922E+01
1.590972049E+01  5.950006485E+01
1.591629612E+01  5.671367264E+01
1.592287174E+01  5.288980103E+01
1.592944736E+01  5.082337189E+01
1.593602299E+01  4.979417419E+01
1.594259861E+01  4.739350891E+01
1.594917423E+01  4.467556763E+01
1.595574986E+01  4.190890503E+01
1.596232548E+01  4.075561523E+01
1.596890110E+01  3.839147568E+01
1.597547673E+01  3.620954132E+01
1.598205235E+01  3.480697250E+01
1.598862797E+01  3.295132828E+01
1.599520360E+01  3.303127670E+01
1.600177922E+01  3.291007996E+01
1.600835484E+01  3.336312485E+01
1.601493047E+01  3.303345871E+01
1.602150609E+01  3.184881210E+01
1.602808171E+01  2.957772636E+01
1.603465734E+01  2.871042442E+01
1.604123296E+01  2.757453728E+01
1.604780858E+01  2.619496155E+01
1.605438421E+01  2.583194542E+01
1.606095983E+01  2.604163742E+01
1.606753545E+01  2.645928764E+01
1.607411108E+01  2.636029053E+01
1.608068670E+01  2.468214607E+01
1.608726232E+01  2.488726234E+01
1.609383795E+01  2.455376625E+01
1.610041357E+01  2.366897583E+01
1.610698919E+01  2.369920540E+01
1.611356482E+01  2.322454834E+01
1.612014044E+01  2.187733841E+01
1.612671606E+01  2.077429581E+01
1.613329169E+01  1.999551201E+01
1.613986731E+01  1.819334984E+01
1.614644293E+01  1.710806274E+01
1.615301856E+01  1.805022049E+01
1.615959418E+01  1.885285187E+01
1.616616980E+01  2.020250130E+01
1.617274543E+01  2.016755104E+01
1.617932105E+01  1.978757668E+01
1.618589667E+01  1.855381012E+01
1.619247229E+01  1.764400864E+01
1.619904792E+01  1.743661118E+01
1.620562354E+01  1.686327934E+01
1.621219916E+01  1.732442284E+01
1.621877479E+01  1.853246498E+01
1.622535041E+01  2.042491913E+01
1.623192603E+01  2.113266373E+01
1.623850166E+01  2.012250519E+01
1.624507728E+01  2.112101936E+01
1.625165290E+01  2.395389748E+01
1.625822853E+01  2.584136391E+01
1.626480415E+01  2.681320381E+01
1.627137977E+01  2.764676666E+01
1.627795540E+01  2.801929665E+01
1.628453102E+01  2.947082901E+01
1.629110664E+01  3.031727982E+01
1.629768227E+01  3.197953606E+01
1.630425789E+01  3.362897873E+01
1.631083351E+01  3.788082886E+01
1.631740914E+01  4.170284653E+01
1.632398476E+01  4.494169617E+01
1.633056038E+01  4.829121017E+01
1.633713601E+01  5.079385376E+01
1.634371163E+01  5.505214310E+01
1.635028725E+01  5.954994965E+01
1.635686288E+01  6.401137543E+01
1.636343850E+01  6.814782715E+01
1.637001412E+01  7.088993835E+01
1.637658975E+01  7.416104889E+01
1.638316537E+01  7.816816711E+01
1.638974099E+01  8.214368439E+01
1.639631662E+01  8.573310852E+01
1.640289224E+01  8.686806488E+01
1.640946786E+01  8.722431946E+01
1.641604349E+01  8.853818512E+01
1.642261911E+01  8.877890015E+01
1.642919473E+01  8.705680847E+01
1.643577036E+01  8.537288666E+01
1.644234598E+01  8.459822845E+01
1.644892160E+01  8.158780670E+01
1.645549723E+01  7.804036713E+01
1.646207285E+01  7.461314392E+01
1.646864847E+01  7.059519958E+01
1.647522410E+01  6.626683044E+01
1.648179972E+01  6.192883301E+01
1.648837534E+01  5.827164459E+01
1.649495097E+01  5.398230362E+01
1.650152659E+01  5.160281754E+01
1.650810221E+01  4.915713882E+01
1.651467783E+01  4.565603256E+01
1.652125346E+01  4.222744751E+01
1.652782908E+01  3.908430481E+01
1.653440470E+01  3.606158447E+01
1.654098033E+01  3.587171555E+01
1.654755595E+01  3.514558411E+01
1.655413157E+01  3.490079117E+01
1.656070720E+01  3.415346527E+01
1.656728282E+01  3.290803146E+01
1.657385844E+01  3.214936829E+01
1.658043407E+01  3.043999100E+01
1.658700969E+01  2.963587189E+01
1.659358531E+01  3.000704575E+01
1.660016094E+01  3.081523705E+01
1.660673656E+01  3.144961548E+01
1.661331218E+01  3.245315170E+01
1.661988781E+01  3.303776169E+01
1.662646343E+01  3.239680481E+01
1.663303905E+01  3.238915634E+01
1.663961468E+01  3.377799606E+01
1.664619030E+01  3.526692963E+01
1.665276592E+01  3.583786774E+01
1.665934155E+01  3.674763489E+01
1.666591717E+01  3.775255585E+01
1.667249279E+01  3.922029495E+01
1.667906842E+01  3.955902100E+01
1.668564404E+01  3.993717194E+01
1.669221966E+01  3.967015076E+01
1.669879529E+01  4.022375488E+01
1.670537091E+01  4.159941483E+01
1.671194653E+01  4.221410370E+01
1.671852216E+01  4.177677536E+01
1.672509778E+01  4.380498123E+01
1.673167340E+01  4.613170624E+01
1.673824903E+01  4.710702515E+01
1.674482465E+01  4.763277054E+01
1.675140027E+01  4.747845840E+01
1.675797590E+01  4.808156586E+01
1.676455152E+01  4.801874542E+01
1.677112714E+01  4.766937637E+01
1.677770277E+01  4.655347061E+01
1.678427839E+01  4.510022354E+01
1.679085401E+01  4.439654922E+01
1.679742964E+01  4.392194366E+01
1.680400526E+01  4.430824280E+01
1.681058088E+01  4.483036423E+01
1.681715651E+01  4.529349136E+01
1.682373213E+01  4.496082306E+01
1.683030775E+01  4.508726501E+01
1.683688338E+01  4.609714890E+01
1.684345900E+01  4.698170853E+01
1.685003462E+01  4.809790421E+01
1.685661024E+01  4.862447357E+01
1.686318587E+01  5.007511139E+01
1.686976149E+01  5.181020355E+01
1.687633711E+01  5.249529648E+01
1.688291274E+01  5.360015488E+01
1.688948836E+01  5.594950485E+01
1.689606398E+01  5.577579880E+01
1.690263961E+01  5.684614944E+01
1.690921523E+01  5.643206024E+01
1.691579085E+01  5.697740173E+01
1.692236648E+01  5.730054855E+01
1.692894210E+01  5.845815659E+01
1.693551772E+01  5.895609283E+01
1.694209335E+01  5.924993134E+01
1.694866897E+01  6.116389465E+01
1.695524459E+01  6.187571716E+01
1.696182022E+01  6.199378586E+01
1.696839584E+01  6.170217896E+01
1.697497146E+01  6.106923676E+01
1.698154709E+01  6.022238922E+01
1.698812271E+01  6.106639862E+01
1.699469833E+01  6.193717575E+01
1.700127396E+01  6.178928757E+01
1.700784958E+01  6.065199661E+01
1.701442520E+01  6.049353027E+01
1.702100083E+01  6.009852982E+01
1.702757645E+01  5.997281265E+01
1.703415207E+01  5.971790314E+01
1.704072770E+01  5.931033325E+01
1.704730332E+01  5.932281494E+01
1.705387894E+01  5.704437637E+01
1.706045457E+01  5.593543243E+01
1.706703019E+01  5.371909714E+01
1.707360581E+01  5.275519562E+01
1.708018144E+01  5.166284943E+01
1.708675706E+01  5.005140686E+01
1.709333268E+01  4.913813019E+01
1.709990831E+01  4.771841431E+01
1.710648393E+01  4.591822433E+01
1.711305955E+01  4.335766983E+01
1.711963518E+01  4.202111816E+01
1.712621080E+01  4.135535431E+01
1.713278642E+01  3.983303833E+01
1.713936205E+01  3.897713089E+01
1.714593767E+01  3.661381531E+01
1.715251329E+01  3.515668488E+01
1.715908892E+01  3.416143036E+01
1.716566454E+01  3.454702377E+01
1.717224016E+01  3.523194504E+01
1.717881578E+01  3.526994324E+01
1.718539141E+01  3.481290054E+01
1.719196703E+01  3.395753860E+01
1.719854265E+01  3.336648560E+01
1.720511828E+01  3.225998688E+01
1.721169390E+01  3.120058632E+01
1.721826952E+01  3.119270325E+01
1.722484515E+01  3.058012199E+01
1.723142077E+01  2.920417786E+01
1.723799639E+01  2.805024719E+01
1.724457202E+01  2.628973770E+01
1.725114764E+01  2.512871933E+01
1.725772326E+01  2.498761559E+01
1.726429889E+01  2.636252594E+01
1.727087451E+01  2.722708321E+01
1.727745013E+01  2.856956673E+01
1.728402576E+01  2.966340446E+01
1.729060138E+01  2.998953819E+01
1.729717700E+01  2.958651924E+01
1.730375263E+01  2.890403366E+01
1.731032825E+01  2.800698662E+01
1.731690387E+01  2.704134560E+01
1.732347950E+01  2.605931282E+01
1.733005512E+01  2.572246933E+01
1.733663074E+01  2.592481422E+01
1.734320637E+01  2.536747169E+01
1.734978199E+01  2.500693893E+01
1.735635761E+01  2.347890472E+01
1.736293324E+01  2.222717285E+01
1.736950886E+01  2.226195145E+01
1.737608448E+01  2.190057373E+01
1.738266011E+01  2.213030624E+01
1.738923573E+01  2.182855034E+01
1.739581135E+01  2.211783218E+01
1.740238698E+01  2.439899826E+01
1.740896260E+01  2.519741821E+01
1.741553822E+01  2.426502419E+01
1.742211385E+01  2.525707817E+01
1.742868947E+01  2.604320526E+01
1.743526509E+01  2.666832733E+01
1.744184072E+01  2.585706139E+01
1.744841634E+01  2.456303596E+01
1.745499196E+01  2.444154358E+01
1.746156759E+01  2.402044106E+01
1.746814321E+01  2.337691116E+01
1.747471883E+01  2.380200577E+01
1.748129446E+01  2.317222786E+01
1.748787008E+01  2.231184196E+01
1.749444570E+01  2.229413795E+01
1.750102132E+01  2.250050735E+01
1.750759695E+01  2.313852310E+01
1.751417257E+01  2.320969200E+01
1.752074819E+01  2.360176277E+01
1.752732382E+01  2.357209778E+01
1.753389944E+01  2.356947327E+01
1.754047506E+01  2.416179276E+01
1.754705069E+01  2.541940308E+01
1.755362631E+01  2.557963181E+01
1.756020193E+01  2.523722649E+01
1.756677756E+01  2.472764587E+01
1.757335318E+01  2.441027069E+01
1.757992880E+01  2.237494087E+01
1.758650443E+01  2.265338135E+01
1.759308005E+01  2.398141479E+01
1.759965567E+01  2.347229385E+01
1.760623130E+01  2.273633575E+01
1.761280692E+01  2.421246529E+01
1.761938254E+01  2.501977158E+01
1.762595817E+01  2.605127335E+01
1.763253379E+01  2.718776894E+01
1.763910941E+01  2.814794731E+01
1.764568504E+01  2.955039978E+01
1.765226066E+01  2.996146965E+01
1.765883628E+01  2.988645935E+01
1.766541191E+01  3.003380775E+01
1.767198753E+01  3.000696564E+01
1.767856315E+01  2.935373306E+01
1.768513878E+01  2.884212303E+01
1.769171440E+01  2.861027336E+01
1.769829002E+01  2.795063019E+01
1.770486565E+01  2.848181152E+01
1.771144127E+01  2.932147789E+01
1.771801689E+01  2.955506134E+01
1.772459252E+01  2.875433922E+01
1.773116814E+01  2.927088165E+01
1.773774376E+01  2.896798515E+01
1.774431939E+01  3.033102989E+01
1.775089501E+01  3.092499161E+01
1.775747063E+01  3.211563492E+01
1.776404626E+01  3.142449570E+01
1.777062188E+01  3.130377960E+01
1.777719750E+01  3.020325661E+01
1.778377313E+01  2.884711266E+01
1.779034875E+01  2.919928169E+01
1.779692437E+01  2.941364288E+01
1.780350000E+01  3.111721611E+01
1.781007562E+01  3.104199791E+01
1.781665124E+01  3.135065269E+01
1.782322687E+01  3.188698006E+01
1.782980249E+01  3.257583618E+01
1.783637811E+01  3.381374741E+01
1.784295373E+01  3.412954712E+01
1.784952936E+01  3.406427765E+01
1.785610498E+01  3.238942719E+01
1.786268060E+01  3.128565598E+01
1.786925623E+01  3.063820839E+01
1.787583185E+01  3.035037422E+01
1.788240747E+01  3.001342392E+01
1.788898310E+01  3.021177864E+01
1.789555872E+01  3.094782257E+01
1.790213434E+01  3.215117264E+01
1.790870997E+01  3.171090889E+01
1.791528559E+01  3.067919731E+01
1.792186121E+01  3.027518463E+01
1.792843684E+01  3.102563858E+01
1.793501246E+01  3.080741882E+01
1.794158808E+01  3.108918381E+01
1.794816371E+01  3.109985161E+01
1.795473933E+01  3.034959412E+01
1.796131495E+01  3.011079788E+01
1.796789058E+01  3.156455040E+01
1.797446620E+01  3.223276901E+01
1.798104182E+01  3.343816757E+01
1.798761745E+01  3.304009247E+01
1.799419307E+01  3.245893860E+01
1.800076869E+01  3.157947159E+01
1.800734432E+01  3.148276329E+01
1.801391994E+01  3.231776810E+01
1.802049556E+01  3.424908066E+01
1.802707119E+01  3.616640854E+01
1.803364681E+01  3.641844940E+01
1.804022243E+01  3.572306442E+01
1.804679806E+01  3.538941574E+01
1.805337368E+01  3.454601669E+01
1.805994930E+01  3.392343521E+01
1.806652493E+01  3.431375885E+01
1.807310055E+01  3.446415710E+01
1.807967617E+01  3.562325668E+01
1.808625180E+01  3.653674316E+01
1.809282742E+01  3.707969666E+01
1.809940304E+01  3.671897507E+01
1.810597867E+01  3.672904205E+01
1.811255429E+01  3.680084610E+01
1.811912991E+01  3.797053146E+01
1.812570554E+01  3.802716064E+01
1.813228116E+01  3.734229279E+01
1.813885678E+01  3.724449921E+01
1.814543241E+01  3.722980881E+01
1.815200803E+01  3.782157898E+01
1.815858365E+01  3.759930801E+01
1.816515927E+01  3.645545959E+01
1.817173490E+01  3.496120453E+01
1.817831052E+01  3.407148361E+01
1.818488614E+01  3.472903824E+01
1.819146177E+01  3.619495010E+01
1.819803739E+01  3.784554672E+01
1.820461301E+01  3.760501099E+01
1.821118864E+01  3.724518967E+01
1.821776426E+01  3.673129654E+01
1.822433988E+01  3.503002930E+01
1.823091551E+01  3.327167511E+01
1.823749113E+01  3.320080185E+01
1.824406675E+01  3.345945740E+01
1.825064238E+01  3.306423187E+01
1.825721800E+01  3.313817215E+01
1.826379362E+01  3.446501160E+01
1.827036925E+01  3.509265518E+01
1.827694487E+01  3.615936661E+01
1.828352049E+01  3.639033890E+01
1.829009612E+01  3.551518250E+01
1.829667174E+01  3.368003082E+01
1.830324736E+01  3.238843536E+01
1.830982299E+01  3.136955070E+01
1.831639861E+01  3.097850418E+01
1.832297423E+01  3.058262634E+01
1.832954986E+01  3.158390808E+01
1.833612548E+01  3.117875862E+01
1.834270110E+01  3.104940605E+01
1.834927673E+01  3.138831520E+01
1.835585235E+01  3.233762741E+01
1.836242797E+01  3.262148285E+01
1.836900360E+01  3.250061798E+01
1.837557922E+01  3.219813919E+01
1.838215484E+01  3.131308556E+01
1.838873047E+01  3.233460999E+01
1.839530609E+01  3.166931915E+01
1.840188171E+01  3.115981483E+01
1.840845734E+01  3.088891983E+01
1.841503296E+01  3.207615662E+01
1.842160858E+01  3.357823563E+01
1.842818421E+01  3.343009186E+01
1.843475983E+01  3.343130112E+01
1.844133545E+01  3.316709900E+01
1.844791108E+01  3.249372482E+01
1.845448670E+01  3.147496223E+01
1.846106232E+01  3.068292236E+01
1.846763795E+01  3.075957108E+01
1.847421357E+01  3.099535179E+01
1.848078919E+01  3.082479477E+01
1.848736482E+01  2.948715401E+01
1.849394044E+01  2.933452415E+01
1.850051606E+01  2.941728783E+01
1.850709168E+01  2.796555328E+01
1.851366731E+01  2.689842987E+01
1.852024293E+01  2.631035042E+01
1.852681855E+01  2.525476265E+01
1.853339418E+01  2.450387192E+01
1.853996980E+01  2.381183052E+01
1.854654542E+01  2.327604866E+01
1.855312105E+01  2.273855209E+01
1.855969667E+01  2.396370888E+01
1.856627229E+01  2.544876289E+01
1.857284792E+01  2.539160156E+01
1.857942354E+01  2.383869743E+01
1.858599916E+01  2.346635056E+01
1.859257479E+01  2.207433701E+01
1.859915041E+01  2.185299683E+01
1.860572603E+01  2.139299774E+01
1.861230166E+01  2.239481354E+01
1.861887728E+01  2.256326103E+01
1.862545290E+01  2.362117577E+01
1.863202853E+01  2.290561104E+01
1.863860415E+01  2.278338623E+01
1.864517977E+01  2.374044609E+01
1.865175540E+01  2.555717278E+01
1.865833102E+01  2.714140701E+01
1.866490664E+01  2.858510399E+01
1.867148227E+01  2.840750885E+01
1.867805789E+01  2.710498428E+01
1.868463351E+01  2.730432701E+01
1.869120914E+01  2.856844902E+01
1.869778476E+01  2.813857651E+01
1.870436038E+01  2.800943184E+01
1.871093601E+01  2.793901062E+01
1.871751163E+01  2.969027138E+01
1.872408725E+01  3.046910858E+01
1.873066288E+01  2.994730186E+01
1.873723850E+01  2.989676094E+01
1.874381412E+01  2.903326988E+01
1.875038975E+01  2.852280045E+01
1.875696537E+01  2.761041260E+01
1.876354099E+01  2.827792740E+01
1.877011662E+01  2.824196434E+01
1.877669224E+01  2.822882271E+01
1.878326786E+01  2.766928101E+01
1.878984349E+01  2.793101883E+01
1.879641911E+01  2.744750214E+01
1.880299473E+01  2.767599678E+01
1.880957036E+01  2.758683014E+01
1.881614598E+01  2.600568199E+01
1.882272160E+01  2.515462685E+01
1.882929722E+01  2.673124886E+01
1.883587285E+01  2.765330696E+01
1.884244847E+01  2.770475769E+01
1.884902409E+01  2.608706665E+01
1.885559972E+01  2.705253792E+01
1.886217534E+01  2.861920166E+01
1.886875096E+01  2.956449509E+01
1.887532659E+01  2.997167587E+01
1.888190221E+01  3.052281189E+01
1.888847783E+01  3.075026321E+01
1.889505346E+01  3.163872910E+01
1.890162908E+01  3.123364449E+01
1.890820470E+01  3.192923737E+01
1.891478033E+01  3.368041611E+01
1.892135595E+01  3.612139130E+01
1.892793157E+01  3.802799606E+01
1.893450720E+01  4.055448914E+01
1.894108282E+01  4.274175262E+01
1.894765844E+01  4.520672226E+01
1.895423407E+01  4.822677231E+01
1.896080969E+01  5.128265762E+01
1.896738531E+01  5.388853836E+01
1.897396094E+01  5.523258972E+01
1.898053656E+01  5.533520126E+01
1.898711218E+01  5.330582047E+01
1.899368781E+01  5.046457672E+01
1.900026343E+01  4.797808075E+01
1.900683905E+01  4.710461044E+01
1.901341468E+01  4.462633514E+01
1.901999030E+01  4.206914520E+01
1.902656592E+01  3.833654404E+01
1.903314155E+01  3.563163376E+01
1.903971717E+01  3.266569138E+01
1.904629279E+01  3.069976997E+01
1.905286842E+01  2.942411995E+01
1.905944404E+01  2.849679756E+01
1.906601966E+01  2.635369873E+01
1.907259529E+01  2.444726372E+01
1.907917091E+01  2.281376648E+01
1.908574653E+01  2.190227318E+01
1.909232216E+01  2.035621643E+01
1.909889778E+01  1.846046829E+01
1.910547340E+01  1.774271202E+01
1.911204903E+01  1.826328659E+01
1.911862465E+01  1.712968254E+01
1.912520027E+01  1.546516228E+01
1.913177590E+01  1.412061596E+01
1.913835152E+01  1.142846870E+01
1.914492714E+01  9.277964592E+00
1.915150276E+01  7.452731609E+00
1.915807839E+01  6.999663353E+00
1.916465401E+01  6.804900169E+00
1.917122963E+01  7.049234867E+00
1.917780526E+01  5.871042728E+00
1.918438088E+01  4.211800575E+00
1.919095650E+01  3.154210329E+00
1.919753213E+01  1.484829903E+00
1.920410775E+01  5.837125182E-01
1.921068337E+01  -1.177495643E-01
1.921725900E+01  -6.732835770E-01
1.922383462E+01  -9.249414206E-01
1.923041024E+01  -8.791644573E-01
1.923698587E+01  -7.117304951E-02
1.924356149E+01  3.392401040E-01
1.925013711E+01  4.911003411E-01
1.925671274E+01  4.109260440E-01
1.926328836E+01  1.245300889E+00
1.926986398E+01  1.766320348E+00
1.927643961E+01  1.730993152E+00
1.928301523E+01  1.811848402E+00
1.928959085E+01  3.718260288E+00
1.929616648E+01  4.898918152E+00
1.930274210E+01  4.810510159E+00
1.930931772E+01  3.735188246E+00
1.931589335E+01  3.366657019E+00
1.932246897E+01  3.231449604E+00
1.932904459E+01  3.512542009E+00
1.933562022E+01  3.278698444E+00
1.934219584E+01  2.639824867E+00
1.934877146E+01  1.425623655E+00
1.935534709E+01  7.991985679E-01
1.936192271E+01  6.623010337E-02
1.936849833E+01  -1.150279999E+00
1.937507396E+01  -6.006534696E-01
1.938164958E+01  7.497996837E-02
1.938822520E+01  -6.568127871E-01
1.939480083E+01  -3.115762472E-01
1.940137645E+01  7.683705539E-02
1.940795207E+01  6.020564437E-01
1.941452770E+01  6.374186277E-01
1.942110332E+01  -2.533152141E-02
1.942767894E+01  4.814945906E-02
1.943425457E+01  -2.742275894E-01
1.944083019E+01  -1.055887565E-01
1.944740581E+01  -2.059090883E-01
1.945398144E+01  -4.875469208E-01
1.946055706E+01  2.993888855E-01
1.946713268E+01  1.033784389E+00
1.947370831E+01  -4.973568618E-01
1.948028393E+01  -6.369571686E-01
1.948685955E+01  5.365280509E-01
1.949343517E+01  -1.114586964E-01
