# == pyFAI calibration ==
# Distance Sample to Detector: 0.400151958433 m
# PONI: 1.472e-01, 1.496e-01 m
# Rotations: -0.001085 0.000539 -0.000000 rad
# 
# == Fit2d calibration ==
# Distance Sample-beamCenter: 400.152 mm
# Center: x=1500.210, y=1474.586 pix
# Tilt: 0.069 deg  TiltPlanRot: 26.426 deg
# 
# Detector Detector	 Spline= None	 PixelSize= 1.000e-04, 1.000e-04 m
#    Detector has a mask: False 
#    Detector has a dark current: False 
#    detector has a flat field: False 
# 
# Wavelength: 4.12969e-11 m
# Mask applied: None
# Dark current applied: None
# Flat field applied: None
# Polarization factor: None
# Normalization factor: None
#
# 2th_deg	 I
6.000256231E+00  -1.483494509E-02
6.006831854E+00  7.656583190E-02
6.013407478E+00  -1.431543380E-01
6.019983101E+00  1.499487460E-01
6.026558724E+00  -1.812547445E-01
6.033134347E+00  1.203468516E-01
6.039709971E+00  1.402730346E-01
6.046285594E+00  5.010859575E-03
6.052861217E+00  -4.263663888E-01
6.059436840E+00  1.904131025E-01
6.066012464E+00  1.011815548E+00
6.072588087E+00  1.164333701E+00
6.079163710E+00  1.350969672E+00
6.085739334E+00  1.957769990E+00
6.092314957E+00  2.415565491E+00
6.098890580E+00  3.025574446E+00
6.105466203E+00  2.426836252E+00
6.112041827E+00  1.531969547E+00
6.118617450E+00  8.260782361E-01
6.125193073E+00  2.101272345E+00
6.131768696E+00  2.912070990E+00
6.138344320E+00  2.251561165E+00
6.144919943E+00  1.583618999E+00
6.151495566E+00  2.370062590E+00
6.158071190E+00  4.139960766E+00
6.164646813E+00  5.383605957E+00
6.171222436E+00  5.164928913E+00
6.177798059E+00  5.330253124E+00
6.184373683E+00  5.161468983E+00
6.190949306E+00  5.746543884E+00
6.197524929E+00  5.639341354E+00
6.204100552E+00  7.396374226E+00
6.210676176E+00  6.898190498E+00
6.217251799E+00  5.173167706E+00
6.223827422E+00  1.719069958E+00
6.230403045E+00  1.291864395E+00
6.236978669E+00  2.948621213E-01
6.243554292E+00  2.031371832E+00
6.250129915E+00  1.765701771E+00
6.256705539E+00  1.977034092E+00
6.263281162E+00  1.061059833E+00
6.269856785E+00  1.974735141E+00
6.276432408E+00  4.127627850E+00
6.283008032E+00  6.415358067E+00
6.289583655E+00  4.884883404E+00
6.296159278E+00  3.863159418E+00
6.302734901E+00  3.541376114E+00
6.309310525E+00  4.203719139E+00
6.315886148E+00  4.986895561E+00
6.322461771E+00  6.260998249E+00
6.329037394E+00  6.819936275E+00
6.335613018E+00  5.506680965E+00
6.342188641E+00  5.329968929E+00
6.348764264E+00  4.868842602E+00
6.355339888E+00  5.274117470E+00
6.361915511E+00  5.809157848E+00
6.368491134E+00  6.914087772E+00
6.375066757E+00  6.635481834E+00
6.381642381E+00  5.276028633E+00
6.388218004E+00  5.296874523E+00
6.394793627E+00  5.342533588E+00
6.401369250E+00  4.985270500E+00
6.407944874E+00  4.845464230E+00
6.414520497E+00  5.091121197E+00
6.421096120E+00  5.449588776E+00
6.427671743E+00  5.726842880E+00
6.434247367E+00  5.908068180E+00
6.440822990E+00  6.124938011E+00
6.447398613E+00  6.189058304E+00
6.453974237E+00  7.919840813E+00
6.460549860E+00  8.376188278E+00
6.467125483E+00  9.487106323E+00
6.473701106E+00  8.972106934E+00
6.480276730E+00  7.905420780E+00
6.486852353E+00  7.059984207E+00
6.493427976E+00  6.857638836E+00
6.500003599E+00  7.150138855E+00
6.506579223E+00  7.398596764E+00
6.513154846E+00  7.661526203E+00
6.519730469E+00  7.155880928E+00
6.526306092E+00  5.525859356E+00
6.532881716E+00  4.707168102E+00
6.539457339E+00  4.666285038E+00
6.546032962E+00  4.930981636E+00
6.552608586E+00  6.628900528E+00
6.559184209E+00  7.554697514E+00
6.565759832E+00  6.777463436E+00
6.572335455E+00  5.964212894E+00
6.578911079E+00  6.098875046E+00
6.585486702E+00  8.223992348E+00
6.592062325E+00  9.679485321E+00
6.598637948E+00  9.224229813E+00
6.605213572E+00  8.680830956E+00
6.611789195E+00  8.315495491E+00
6.618364818E+00  7.324603081E+00
6.624940441E+00  5.730452538E+00
6.631516065E+00  5.657378674E+00
6.638091688E+00  5.891320229E+00
6.644667311E+00  6.571956158E+00
6.651242935E+00  5.567459583E+00
6.657818558E+00  5.015755653E+00
6.664394181E+00  4.377258778E+00
6.670969804E+00  3.703671455E+00
6.677545428E+00  3.451708078E+00
6.684121051E+00  4.344671249E+00
6.690696674E+00  4.474994183E+00
6.697272297E+00  3.708788157E+00
6.703847921E+00  3.135795355E+00
6.710423544E+00  2.968811512E+00
6.716999167E+00  3.695054770E+00
6.723574790E+00  3.504638195E+00
6.730150414E+00  3.347213507E+00
6.736726037E+00  4.147794247E+00
6.743301660E+00  5.397332668E+00
6.749877284E+00  6.561413765E+00
6.756452907E+00  7.236746788E+00
6.763028530E+00  7.930707455E+00
6.769604153E+00  8.574517250E+00
6.776179777E+00  8.192676544E+00
6.782755400E+00  7.299684525E+00
6.789331023E+00  7.131485939E+00
6.795906646E+00  6.622270107E+00
6.802482270E+00  6.852707863E+00
6.809057893E+00  7.726462841E+00
6.815633516E+00  7.687713623E+00
6.822209139E+00  6.539755821E+00
6.828784763E+00  6.083424568E+00
6.835360386E+00  5.452785969E+00
6.841936009E+00  5.526268482E+00
6.848511633E+00  5.205714226E+00
6.855087256E+00  5.749875069E+00
6.861662879E+00  5.924805641E+00
6.868238502E+00  6.842730045E+00
6.874814126E+00  6.942759991E+00
6.881389749E+00  6.574636936E+00
6.887965372E+00  6.446736336E+00
6.894540995E+00  7.138031483E+00
6.901116619E+00  7.616657257E+00
6.907692242E+00  8.350996017E+00
6.914267865E+00  7.600699902E+00
6.920843488E+00  6.506048679E+00
6.927419112E+00  5.465397835E+00
6.933994735E+00  5.889575481E+00
6.940570358E+00  6.958964825E+00
6.947145982E+00  7.422091007E+00
6.953721605E+00  7.297769547E+00
6.960297228E+00  7.816024780E+00
6.966872851E+00  7.207397461E+00
6.973448475E+00  7.063045979E+00
6.980024098E+00  4.932648659E+00
6.986599721E+00  4.772639275E+00
6.993175344E+00  5.294836521E+00
6.999750968E+00  6.666878223E+00
7.006326591E+00  7.172861099E+00
7.012902214E+00  7.654496193E+00
7.019477837E+00  7.454218864E+00
7.026053461E+00  8.470846176E+00
7.032629084E+00  9.930325508E+00
7.039204707E+00  1.145823479E+01
7.045780331E+00  1.192280102E+01
7.052355954E+00  1.027961731E+01
7.058931577E+00  9.546010017E+00
7.065507200E+00  8.611579895E+00
7.072082824E+00  7.164714336E+00
7.078658447E+00  4.220911503E+00
7.085234070E+00  3.086399794E+00
7.091809693E+00  3.649402380E+00
7.098385317E+00  4.722423553E+00
7.104960940E+00  5.512957096E+00
7.111536563E+00  5.338577271E+00
7.118112186E+00  6.397455215E+00
7.124687810E+00  6.639211178E+00
7.131263433E+00  6.136505604E+00
7.137839056E+00  5.544760704E+00
7.144414680E+00  6.153928280E+00
7.150990303E+00  5.988836288E+00
7.157565926E+00  6.333122253E+00
7.164141549E+00  6.805411339E+00
7.170717173E+00  5.444039345E+00
7.177292796E+00  3.646512270E+00
7.183868419E+00  1.504469395E+00
7.190444042E+00  -4.782930315E-01
7.197019666E+00  -4.734669626E-01
7.203595289E+00  8.018966317E-01
7.210170912E+00  2.175720215E+00
7.216746535E+00  1.699610710E+00
7.223322159E+00  2.864676952E+00
7.229897782E+00  2.692348719E+00
7.236473405E+00  3.291013002E+00
7.243049029E+00  2.536674500E+00
7.249624652E+00  2.195019007E+00
7.256200275E+00  2.281760216E+00
7.262775898E+00  3.282603741E+00
7.269351522E+00  2.977702141E+00
7.275927145E+00  3.339597940E+00
7.282502768E+00  1.956066847E+00
7.289078391E+00  1.303547978E+00
7.295654015E+00  1.176092267E+00
7.302229638E+00  3.032522440E+00
7.308805261E+00  3.319425583E+00
7.315380884E+00  4.260941505E+00
7.321956508E+00  4.567497253E+00
7.328532131E+00  4.698987961E+00
7.335107754E+00  4.462427616E+00
7.341683378E+00  4.507063866E+00
7.348259001E+00  5.276037693E+00
7.354834624E+00  5.331821442E+00
7.361410247E+00  4.994157791E+00
7.367985871E+00  4.279515743E+00
7.374561494E+00  3.714078665E+00
7.381137117E+00  4.458262444E+00
7.387712740E+00  4.477125645E+00
7.394288364E+00  4.092136383E+00
7.400863987E+00  3.178439379E+00
7.407439610E+00  4.209297180E+00
7.414015233E+00  3.914543867E+00
7.420590857E+00  4.458325386E+00
7.427166480E+00  1.889545679E+00
7.433742103E+00  1.501737714E+00
7.440317727E+00  5.979618430E-01
7.446893350E+00  2.192473173E+00
7.453468973E+00  2.795395374E+00
7.460044596E+00  3.301398993E+00
7.466620220E+00  1.449178934E+00
7.473195843E+00  1.909350395E+00
7.479771466E+00  2.993457019E-01
7.486347089E+00  1.043280721E+00
7.492922713E+00  9.998545051E-02
7.499498336E+00  -1.839670986E-01
7.506073959E+00  -9.458413124E-01
7.512649582E+00  -4.173344374E-01
7.519225206E+00  6.882160902E-01
7.525800829E+00  1.861378551E+00
7.532376452E+00  1.526605368E+00
7.538952076E+00  6.386665702E-01
7.545527699E+00  1.050095260E-01
7.552103322E+00  -1.053574234E-01
7.558678945E+00  4.932088256E-01
7.565254569E+00  4.903841615E-01
7.571830192E+00  1.721474051E+00
7.578405815E+00  2.073560953E+00
7.584981438E+00  3.515284538E+00
7.591557062E+00  3.596348524E+00
7.598132685E+00  5.281987190E+00
7.604708308E+00  5.827962399E+00
7.611283931E+00  6.847451687E+00
7.617859555E+00  7.018075943E+00
7.624435178E+00  8.859238625E+00
7.631010801E+00  8.922553062E+00
7.637586425E+00  8.740567207E+00
7.644162048E+00  8.882426262E+00
7.650737671E+00  9.210708618E+00
7.657313294E+00  1.079206371E+01
7.663888918E+00  1.106469440E+01
7.670464541E+00  1.105515385E+01
7.677040164E+00  1.046183872E+01
7.683615787E+00  9.375693321E+00
7.690191411E+00  7.885193825E+00
7.696767034E+00  8.562183380E+00
7.703342657E+00  7.736293793E+00
7.709918281E+00  8.506173134E+00
7.716493904E+00  8.196522713E+00
7.723069527E+00  7.823916435E+00
7.729645150E+00  7.785772324E+00
7.736220774E+00  7.341796398E+00
7.742796397E+00  6.915745735E+00
7.749372020E+00  6.162326336E+00
7.755947643E+00  6.509186268E+00
7.762523267E+00  6.628111362E+00
7.769098890E+00  7.537566185E+00
7.775674513E+00  6.922033310E+00
7.782250136E+00  6.810725689E+00
7.788825760E+00  6.204054356E+00
7.795401383E+00  5.498434544E+00
7.801977006E+00  5.734334946E+00
7.808552630E+00  6.115809441E+00
7.815128253E+00  8.303466797E+00
7.821703876E+00  9.579511642E+00
7.828279499E+00  1.031844711E+01
7.834855123E+00  1.110035515E+01
7.841430746E+00  1.150826263E+01
7.848006369E+00  1.111300278E+01
7.854581992E+00  1.086920834E+01
7.861157616E+00  9.684651375E+00
7.867733239E+00  1.116291332E+01
7.874308862E+00  1.402575016E+01
7.880884485E+00  1.609404564E+01
7.887460109E+00  1.765207291E+01
7.894035732E+00  1.885861778E+01
7.900611355E+00  1.931583023E+01
7.907186979E+00  1.960633087E+01
7.913762602E+00  2.043627739E+01
7.920338225E+00  2.363145256E+01
7.926913848E+00  2.769146729E+01
7.933489472E+00  3.108418846E+01
7.940065095E+00  3.463050461E+01
7.946640718E+00  3.786907578E+01
7.953216341E+00  4.207976151E+01
7.959791965E+00  4.582512665E+01
7.966367588E+00  4.929370499E+01
7.972943211E+00  5.397529984E+01
7.979518834E+00  5.884357452E+01
7.986094458E+00  6.436048126E+01
7.992670081E+00  7.133805084E+01
7.999245704E+00  8.022161102E+01
8.005821328E+00  9.183391571E+01
8.012396951E+00  1.038844299E+02
8.018972574E+00  1.175440445E+02
8.025548197E+00  1.310334473E+02
8.032123821E+00  1.474160767E+02
8.038699444E+00  1.674267731E+02
8.045275067E+00  1.929834747E+02
8.051850690E+00  2.260651550E+02
8.058426314E+00  2.635911865E+02
8.065001937E+00  3.104267883E+02
8.071577560E+00  3.587662659E+02
8.078153183E+00  4.105602112E+02
8.084728807E+00  4.607114563E+02
8.091304430E+00  5.121955566E+02
8.097880053E+00  5.629700317E+02
8.104455677E+00  6.094327393E+02
8.111031300E+00  6.557335815E+02
8.117606923E+00  6.960844727E+02
8.124182546E+00  7.421856079E+02
8.130758170E+00  7.689778442E+02
8.137333793E+00  7.877971802E+02
8.143909416E+00  7.769155884E+02
8.150485039E+00  7.509482422E+02
8.157060663E+00  6.898347168E+02
8.163636286E+00  6.321477661E+02
8.170211909E+00  5.627965698E+02
8.176787532E+00  5.070990295E+02
8.183363156E+00  4.506967773E+02
8.189938779E+00  4.057783508E+02
8.196514402E+00  3.682246704E+02
8.203090026E+00  3.326529236E+02
8.209665649E+00  3.020382690E+02
8.216241272E+00  2.721747131E+02
8.222816895E+00  2.471091614E+02
8.229392519E+00  2.223865814E+02
8.235968142E+00  2.017692108E+02
8.242543765E+00  1.800632629E+02
8.249119388E+00  1.621959991E+02
8.255695012E+00  1.468447266E+02
8.262270635E+00  1.349401093E+02
8.268846258E+00  1.239069824E+02
8.275421881E+00  1.136501617E+02
8.281997505E+00  1.052316742E+02
8.288573128E+00  9.743423462E+01
8.295148751E+00  9.182621765E+01
8.301724375E+00  8.605068970E+01
8.308299998E+00  8.063986969E+01
8.314875621E+00  7.655908966E+01
8.321451244E+00  7.349044800E+01
8.328026868E+00  7.037242126E+01
8.334602491E+00  6.651065063E+01
8.341178114E+00  6.312678528E+01
8.347753737E+00  5.979111862E+01
8.354329361E+00  5.764375305E+01
8.360904984E+00  5.537362289E+01
8.367480607E+00  5.381078339E+01
8.374056230E+00  5.368420029E+01
8.380631854E+00  5.295868683E+01
8.387207477E+00  5.098821640E+01
8.393783100E+00  4.956719208E+01
8.400358724E+00  4.934597778E+01
8.406934347E+00  4.905892181E+01
8.413509970E+00  5.000629425E+01
8.420085593E+00  5.086336899E+01
8.426661217E+00  4.934936142E+01
8.433236840E+00  4.517081070E+01
8.439812463E+00  3.823052597E+01
8.446388086E+00  3.287324142E+01
8.452963710E+00  2.952326012E+01
8.459539333E+00  2.580803108E+01
8.466114956E+00  2.422267532E+01
8.472690579E+00  2.154405785E+01
8.479266203E+00  2.031174469E+01
8.485841826E+00  1.909459877E+01
8.492417449E+00  1.749517822E+01
8.498993073E+00  1.679573441E+01
8.505568696E+00  1.858711433E+01
8.512144319E+00  1.756660843E+01
8.518719942E+00  1.685436630E+01
8.525295566E+00  1.533567238E+01
8.531871189E+00  1.357696438E+01
8.538446812E+00  1.172769070E+01
8.545022435E+00  1.237723827E+01
8.551598059E+00  1.265503502E+01
8.558173682E+00  1.313826180E+01
8.564749305E+00  1.445195103E+01
8.571324928E+00  1.564691257E+01
8.577900552E+00  1.603128052E+01
8.584476175E+00  1.753330421E+01
8.591051798E+00  1.855339813E+01
8.597627422E+00  1.925076294E+01
8.604203045E+00  2.002239418E+01
8.610778668E+00  2.145619583E+01
8.617354291E+00  2.178460312E+01
8.623929915E+00  2.268097115E+01
8.630505538E+00  2.200516891E+01
8.637081161E+00  2.248034859E+01
8.643656784E+00  2.194977570E+01
8.650232408E+00  2.149792290E+01
8.656808031E+00  2.107742691E+01
8.663383654E+00  2.041826820E+01
8.669959277E+00  1.981584930E+01
8.676534901E+00  1.946352577E+01
8.683110524E+00  1.843892860E+01
8.689686147E+00  1.601451302E+01
8.696261771E+00  1.416878605E+01
8.702837394E+00  1.464441776E+01
8.709413017E+00  1.435106754E+01
8.715988640E+00  1.412662315E+01
8.722564264E+00  1.296033669E+01
8.729139887E+00  1.217105198E+01
8.735715510E+00  1.017331982E+01
8.742291133E+00  8.833838463E+00
8.748866757E+00  8.345483780E+00
8.755442380E+00  7.257087708E+00
8.762018003E+00  6.376276493E+00
8.768593626E+00  6.139583588E+00
8.775169250E+00  5.939601898E+00
8.781744873E+00  5.401835442E+00
8.788320496E+00  5.589781284E+00
8.794896120E+00  5.090375900E+00
8.801471743E+00  5.321125507E+00
8.808047366E+00  5.848465443E+00
8.814622989E+00  5.556215286E+00
8.821198613E+00  5.139233589E+00
8.827774236E+00  5.018455505E+00
8.834349859E+00  6.294505596E+00
8.840925482E+00  6.989884853E+00
8.847501106E+00  7.811179161E+00
8.854076729E+00  9.059213638E+00
8.860652352E+00  1.051235294E+01
8.867227975E+00  1.124925613E+01
8.873803599E+00  1.246723557E+01
8.880379222E+00  1.293147469E+01
8.886954845E+00  1.473039913E+01
8.893530469E+00  1.570096779E+01
8.900106092E+00  1.571432209E+01
8.906681715E+00  1.555321980E+01
8.913257338E+00  1.616448212E+01
8.919832962E+00  1.688018417E+01
8.926408585E+00  1.631315613E+01
8.932984208E+00  1.521637058E+01
8.939559831E+00  1.452492046E+01
8.946135455E+00  1.462507153E+01
8.952711078E+00  1.495240498E+01
8.959286701E+00  1.762120819E+01
8.965862324E+00  1.972965240E+01
8.972437948E+00  2.181243515E+01
8.979013571E+00  2.231293869E+01
8.985589194E+00  2.343186951E+01
8.992164818E+00  2.416485214E+01
8.998740441E+00  2.546893692E+01
9.005316064E+00  2.739101601E+01
9.011891687E+00  3.030610275E+01
9.018467311E+00  3.115903664E+01
9.025042934E+00  3.247326660E+01
9.031618557E+00  3.364284897E+01
9.038194180E+00  3.373176193E+01
9.044769804E+00  3.600172806E+01
9.051345427E+00  3.828821182E+01
9.057921050E+00  4.143204498E+01
9.064496673E+00  4.347083282E+01
9.071072297E+00  4.673418045E+01
9.077647920E+00  4.793547440E+01
9.084223543E+00  4.805129242E+01
9.090799167E+00  4.679209518E+01
9.097374790E+00  4.840643692E+01
9.103950413E+00  5.258378601E+01
9.110526036E+00  5.580365372E+01
9.117101660E+00  5.929310608E+01
9.123677283E+00  6.161613464E+01
9.130252906E+00  6.470586395E+01
9.136828529E+00  6.662384796E+01
9.143404153E+00  6.998973846E+01
9.149979776E+00  7.194808960E+01
9.156555399E+00  7.288663483E+01
9.163131022E+00  7.259886932E+01
9.169706646E+00  7.396810913E+01
9.176282269E+00  7.367359924E+01
9.182857892E+00  7.457719421E+01
9.189433516E+00  7.467941284E+01
9.196009139E+00  7.312921906E+01
9.202584762E+00  7.071669769E+01
9.209160385E+00  6.840183258E+01
9.215736009E+00  6.644737244E+01
9.222311632E+00  6.431966400E+01
9.228887255E+00  6.194647217E+01
9.235462878E+00  6.210664749E+01
9.242038502E+00  6.028802109E+01
9.248614125E+00  5.974892807E+01
9.255189748E+00  5.910659027E+01
9.261765372E+00  5.827754974E+01
9.268340995E+00  5.842736435E+01
9.274916618E+00  6.127969742E+01
9.281492241E+00  6.522031403E+01
9.288067865E+00  6.945677185E+01
9.294643488E+00  7.708772278E+01
9.301219111E+00  8.725723267E+01
9.307794734E+00  9.959617615E+01
9.314370358E+00  1.145786972E+02
9.320945981E+00  1.351262054E+02
9.327521604E+00  1.614608612E+02
9.334097227E+00  1.929781952E+02
9.340672851E+00  2.325727539E+02
9.347248474E+00  2.767616272E+02
9.353824097E+00  3.216053772E+02
9.360399721E+00  3.629916687E+02
9.366975344E+00  3.948966064E+02
9.373550967E+00  4.281029053E+02
9.380126590E+00  4.605621948E+02
9.386702214E+00  5.003750916E+02
9.393277837E+00  5.231577759E+02
9.399853460E+00  5.659097900E+02
9.406429083E+00  5.587008667E+02
9.413004707E+00  5.875638428E+02
9.419580330E+00  5.420098267E+02
9.426155953E+00  4.683518066E+02
9.432731576E+00  4.012255859E+02
9.439307200E+00  3.376496887E+02
9.445882823E+00  2.798384094E+02
9.452458446E+00  2.435232391E+02
9.459034070E+00  2.094751434E+02
9.465609693E+00  1.873518524E+02
9.472185316E+00  1.677358551E+02
9.478760939E+00  1.513840027E+02
9.485336563E+00  1.365311432E+02
9.491912186E+00  1.246509094E+02
9.498487809E+00  1.160694733E+02
9.505063432E+00  1.116852722E+02
9.511639056E+00  1.086189194E+02
9.518214679E+00  1.091306610E+02
9.524790302E+00  1.095500946E+02
9.531365925E+00  1.130388412E+02
9.537941549E+00  1.167975922E+02
9.544517172E+00  1.231662064E+02
9.551092795E+00  1.305440979E+02
9.557668419E+00  1.387584076E+02
9.564244042E+00  1.441280212E+02
9.570819665E+00  1.505142517E+02
9.577395288E+00  1.557413330E+02
9.583970912E+00  1.606593781E+02
9.590546535E+00  1.647635040E+02
9.597122158E+00  1.677983398E+02
9.603697781E+00  1.699548187E+02
9.610273405E+00  1.704619598E+02
9.616849028E+00  1.688212128E+02
9.623424651E+00  1.668455811E+02
9.630000274E+00  1.641835175E+02
9.636575898E+00  1.591787567E+02
9.643151521E+00  1.540427246E+02
9.649727144E+00  1.488862610E+02
9.656302768E+00  1.451131592E+02
9.662878391E+00  1.413860474E+02
9.669454014E+00  1.356423798E+02
9.676029637E+00  1.280452423E+02
9.682605261E+00  1.165189514E+02
9.689180884E+00  1.065771561E+02
9.695756507E+00  9.857579803E+01
9.702332130E+00  9.076730347E+01
9.708907754E+00  8.340261841E+01
9.715483377E+00  7.487480164E+01
9.722059000E+00  6.849436951E+01
9.728634623E+00  6.345708847E+01
9.735210247E+00  5.793481827E+01
9.741785870E+00  5.162088394E+01
9.748361493E+00  4.646496201E+01
9.754937117E+00  4.230686188E+01
9.761512740E+00  3.863776779E+01
9.768088363E+00  3.563537216E+01
9.774663986E+00  3.306136322E+01
9.781239610E+00  3.299089813E+01
9.787815233E+00  3.246935654E+01
9.794390856E+00  3.046886444E+01
9.800966479E+00  2.744641685E+01
9.807542103E+00  2.550451851E+01
9.814117726E+00  2.290338707E+01
9.820693349E+00  2.151408005E+01
9.827268972E+00  2.026429749E+01
9.833844596E+00  2.027460861E+01
9.840420219E+00  2.183160400E+01
9.846995842E+00  2.213300133E+01
9.853571466E+00  2.166363335E+01
9.860147089E+00  2.213148117E+01
9.866722712E+00  2.378016281E+01
9.873298335E+00  2.577273750E+01
9.879873959E+00  2.826347923E+01
9.886449582E+00  3.038224030E+01
9.893025205E+00  3.396347046E+01
9.899600828E+00  3.638752365E+01
9.906176452E+00  3.785212326E+01
9.912752075E+00  3.958772278E+01
9.919327698E+00  4.272955704E+01
9.925903321E+00  4.700758743E+01
9.932478945E+00  5.072013474E+01
9.939054568E+00  5.500048447E+01
9.945630191E+00  5.916942215E+01
9.952205815E+00  6.419031525E+01
9.958781438E+00  6.909340668E+01
9.965357061E+00  7.602030182E+01
9.971932684E+00  8.072586060E+01
9.978508308E+00  8.638974762E+01
9.985083931E+00  9.115795898E+01
9.991659554E+00  9.752313995E+01
9.998235177E+00  1.035297165E+02
1.000481080E+01  1.085326538E+02
1.001138642E+01  1.139469681E+02
1.001796205E+01  1.184513474E+02
1.002453767E+01  1.228699951E+02
1.003111329E+01  1.267912674E+02
1.003768892E+01  1.309089813E+02
1.004426454E+01  1.349711761E+02
1.005084016E+01  1.391667633E+02
1.005741579E+01  1.414649811E+02
1.006399141E+01  1.435435028E+02
1.007056703E+01  1.458959808E+02
1.007714266E+01  1.482777252E+02
1.008371828E+01  1.474626465E+02
1.009029390E+01  1.462993317E+02
1.009686953E+01  1.430973053E+02
1.010344515E+01  1.381182404E+02
1.011002077E+01  1.278347702E+02
1.011659640E+01  1.161618729E+02
1.012317202E+01  1.042484283E+02
1.012974764E+01  9.636734009E+01
1.013632327E+01  8.790528107E+01
1.014289889E+01  8.169326019E+01
1.014947451E+01  7.472974396E+01
1.015605014E+01  6.860210419E+01
1.016262576E+01  6.340645981E+01
1.016920138E+01  5.900947189E+01
1.017577701E+01  5.433783722E+01
1.018235263E+01  5.105166245E+01
1.018892825E+01  4.851612473E+01
1.019550388E+01  4.686740494E+01
1.020207950E+01  4.336179352E+01
1.020865512E+01  4.003440094E+01
1.021523075E+01  3.785441208E+01
1.022180637E+01  3.622949219E+01
1.022838199E+01  3.486759949E+01
1.023495762E+01  3.278626251E+01
1.024153324E+01  3.284041595E+01
1.024810886E+01  3.204515457E+01
1.025468448E+01  3.213969040E+01
1.026126011E+01  3.158150101E+01
1.026783573E+01  3.077435875E+01
1.027441135E+01  3.137544823E+01
1.028098698E+01  3.104928589E+01
1.028756260E+01  3.117767334E+01
1.029413822E+01  2.973616219E+01
1.030071385E+01  2.951573944E+01
1.030728947E+01  2.782350349E+01
1.031386509E+01  2.758569717E+01
1.032044072E+01  2.697417068E+01
1.032701634E+01  2.616955948E+01
1.033359196E+01  2.635250664E+01
1.034016759E+01  2.748490524E+01
1.034674321E+01  2.908382225E+01
1.035331883E+01  3.047003937E+01
1.035989446E+01  3.206687927E+01
1.036647008E+01  3.194365120E+01
1.037304570E+01  3.148510933E+01
1.037962133E+01  2.933429718E+01
1.038619695E+01  2.815379524E+01
1.039277257E+01  2.621116257E+01
1.039934820E+01  2.458596802E+01
1.040592382E+01  2.354039955E+01
1.041249944E+01  2.163547134E+01
1.041907507E+01  2.080035591E+01
1.042565069E+01  2.075378418E+01
1.043222631E+01  2.012170410E+01
1.043880194E+01  1.914285851E+01
1.044537756E+01  1.917317581E+01
1.045195318E+01  1.877170563E+01
1.045852881E+01  1.781781197E+01
1.046510443E+01  1.553801823E+01
1.047168005E+01  1.464957333E+01
1.047825568E+01  1.412997627E+01
1.048483130E+01  1.451238728E+01
1.049140692E+01  1.506531429E+01
1.049798255E+01  1.480677700E+01
1.050455817E+01  1.425088310E+01
1.051113379E+01  1.346642971E+01
1.051770942E+01  1.253294849E+01
1.052428504E+01  1.211200428E+01
1.053086066E+01  1.199894619E+01
1.053743629E+01  1.138902378E+01
1.054401191E+01  1.185590267E+01
1.055058753E+01  1.175840378E+01
1.055716316E+01  1.139919090E+01
1.056373878E+01  1.072106743E+01
1.057031440E+01  1.066438961E+01
1.057689002E+01  8.465901375E+00
1.058346565E+01  8.316447258E+00
1.059004127E+01  7.992807388E+00
1.059661689E+01  6.787387848E+00
1.060319252E+01  6.368569374E+00
1.060976814E+01  6.377390862E+00
1.061634376E+01  6.553522110E+00
1.062291939E+01  6.085853577E+00
1.062949501E+01  7.101264477E+00
1.063607063E+01  7.710033894E+00
1.064264626E+01  9.129373550E+00
1.064922188E+01  9.370446205E+00
1.065579750E+01  9.212478638E+00
1.066237313E+01  8.236947060E+00
1.066894875E+01  8.228456497E+00
1.067552437E+01  8.465753555E+00
1.068210000E+01  7.827684879E+00
1.068867562E+01  7.388901234E+00
1.069525124E+01  8.164486885E+00
1.070182687E+01  7.956149578E+00
1.070840249E+01  7.632493973E+00
1.071497811E+01  7.945919037E+00
1.072155374E+01  6.832420349E+00
1.072812936E+01  5.612761497E+00
1.073470498E+01  5.534958363E+00
1.074128061E+01  5.753278255E+00
1.074785623E+01  5.219844341E+00
1.075443185E+01  3.634832144E+00
1.076100748E+01  1.390312910E+00
1.076758310E+01  -4.194882512E-01
1.077415872E+01  -7.583138347E-02
1.078073435E+01  2.694216073E-01
1.078730997E+01  1.211482763E+00
1.079388559E+01  1.000840783E+00
1.080046122E+01  6.501948237E-01
1.080703684E+01  1.151739478E+00
1.081361246E+01  1.950308919E+00
1.082018809E+01  2.783220530E+00
1.082676371E+01  2.947853565E+00
1.083333933E+01  3.131725550E+00
1.083991496E+01  3.351947069E+00
1.084649058E+01  2.976704597E+00
1.085306620E+01  2.811198235E+00
1.085964183E+01  2.240219831E+00
1.086621745E+01  1.736941695E+00
1.087279307E+01  2.487915993E+00
1.087936870E+01  2.682626247E+00
1.088594432E+01  2.149716616E+00
1.089251994E+01  1.447812319E+00
1.089909556E+01  1.781535506E+00
1.090567119E+01  2.192910910E+00
1.091224681E+01  2.858240843E+00
1.091882243E+01  3.186737061E+00
1.092539806E+01  2.968471289E+00
1.093197368E+01  2.295760632E+00
1.093854930E+01  1.695979834E+00
1.094512493E+01  1.109101295E+00
1.095170055E+01  1.468748450E+00
1.095827617E+01  2.135790110E+00
1.096485180E+01  2.664941788E+00
1.097142742E+01  1.358964205E+00
1.097800304E+01  6.304808259E-01
1.098457867E+01  8.901602626E-01
1.099115429E+01  2.115076303E+00
1.099772991E+01  1.939039350E+00
1.100430554E+01  1.417733431E+00
1.101088116E+01  1.336821914E+00
1.101745678E+01  1.690462589E+00
1.102403241E+01  1.575350642E+00
1.103060803E+01  9.675747156E-01
1.103718365E+01  6.068938375E-01
1.104375928E+01  1.261320263E-01
1.105033490E+01  5.961002707E-01
1.105691052E+01  1.063194156E+00
1.106348615E+01  1.769608974E+00
1.107006177E+01  6.704295278E-01
1.107663739E+01  8.193721175E-01
1.108321302E+01  1.471812487E+00
1.108978864E+01  2.024238586E+00
1.109636426E+01  2.861418962E+00
1.110293989E+01  4.639605522E+00
1.110951551E+01  5.934971809E+00
1.111609113E+01  5.164998531E+00
1.112266676E+01  5.720312119E+00
1.112924238E+01  7.095541000E+00
1.113581800E+01  7.659825802E+00
1.114239363E+01  7.646076202E+00
1.114896925E+01  8.966401100E+00
1.115554487E+01  1.041523361E+01
1.116212050E+01  1.123524857E+01
1.116869612E+01  1.093084145E+01
1.117527174E+01  1.010113239E+01
1.118184737E+01  9.308622360E+00
1.118842299E+01  8.192471504E+00
1.119499861E+01  9.665766716E+00
1.120157424E+01  1.010839272E+01
1.120814986E+01  1.090511703E+01
1.121472548E+01  1.034256363E+01
1.122130111E+01  1.169368362E+01
1.122787673E+01  1.148143101E+01
1.123445235E+01  9.734129906E+00
1.124102797E+01  8.220340729E+00
1.124760360E+01  7.832158566E+00
1.125417922E+01  7.566659927E+00
1.126075484E+01  7.704613686E+00
1.126733047E+01  8.367120743E+00
1.127390609E+01  7.776846409E+00
1.128048171E+01  7.798544884E+00
1.128705734E+01  7.285253525E+00
1.129363296E+01  8.453779221E+00
1.130020858E+01  9.622491837E+00
1.130678421E+01  1.081191063E+01
1.131335983E+01  1.209724236E+01
1.131993545E+01  1.217771816E+01
1.132651108E+01  1.113586998E+01
1.133308670E+01  1.029544163E+01
1.133966232E+01  1.045673847E+01
1.134623795E+01  1.176088905E+01
1.135281357E+01  1.203554249E+01
1.135938919E+01  1.200922966E+01
1.136596482E+01  1.115559769E+01
1.137254044E+01  1.143462086E+01
1.137911606E+01  1.283020210E+01
1.138569169E+01  1.490338993E+01
1.139226731E+01  1.674257851E+01
1.139884293E+01  1.768371964E+01
1.140541856E+01  1.883473969E+01
1.141199418E+01  1.820981216E+01
1.141856980E+01  1.680113983E+01
1.142514543E+01  1.395541668E+01
1.143172105E+01  1.359013748E+01
1.143829667E+01  1.358178139E+01
1.144487230E+01  1.461737442E+01
1.145144792E+01  1.617935181E+01
1.145802354E+01  1.581362438E+01
1.146459917E+01  1.494745445E+01
1.147117479E+01  1.533329487E+01
1.147775041E+01  1.608102226E+01
1.148432604E+01  1.689572716E+01
1.149090166E+01  1.768269539E+01
1.149747728E+01  1.869682503E+01
1.150405291E+01  1.881117058E+01
1.151062853E+01  1.872789383E+01
1.151720415E+01  1.904564095E+01
1.152377978E+01  2.029127693E+01
1.153035540E+01  2.155221558E+01
1.153693102E+01  2.240659332E+01
1.154350665E+01  2.308049583E+01
1.155008227E+01  2.417012405E+01
1.155665789E+01  2.507832336E+01
1.156323351E+01  2.488517761E+01
1.156980914E+01  2.375964546E+01
1.157638476E+01  2.253083992E+01
1.158296038E+01  2.238626862E+01
1.158953601E+01  2.147535706E+01
1.159611163E+01  2.015748978E+01
1.160268725E+01  1.987603760E+01
1.160926288E+01  2.005678940E+01
1.161583850E+01  1.967046165E+01
1.162241412E+01  1.987575531E+01
1.162898975E+01  1.823420143E+01
1.163556537E+01  1.551436901E+01
1.164214099E+01  1.403999615E+01
1.164871662E+01  1.542144585E+01
1.165529224E+01  1.590579987E+01
1.166186786E+01  1.601211166E+01
1.166844349E+01  1.578384876E+01
1.167501911E+01  1.613606262E+01
1.168159473E+01  1.480020905E+01
1.168817036E+01  1.369622326E+01
1.169474598E+01  1.387782574E+01
1.170132160E+01  1.410528469E+01
1.170789723E+01  1.329413986E+01
1.171447285E+01  1.196051502E+01
1.172104847E+01  1.084124184E+01
1.172762410E+01  1.046416378E+01
1.173419972E+01  1.117304611E+01
1.174077534E+01  1.083215904E+01
1.174735097E+01  9.973255157E+00
1.175392659E+01  9.213536263E+00
1.176050221E+01  9.681922913E+00
1.176707784E+01  8.849621773E+00
1.177365346E+01  8.066256523E+00
1.178022908E+01  7.424617290E+00
1.178680471E+01  8.462316513E+00
1.179338033E+01  8.403491020E+00
1.179995595E+01  8.210558891E+00
1.180653158E+01  7.192620277E+00
1.181310720E+01  8.525471687E+00
1.181968282E+01  1.078920841E+01
1.182625845E+01  1.362935448E+01
1.183283407E+01  1.410794067E+01
1.183940969E+01  1.328699589E+01
1.184598532E+01  1.204934883E+01
1.185256094E+01  1.263476467E+01
1.185913656E+01  1.321806622E+01
1.186571219E+01  1.252095222E+01
1.187228781E+01  1.135105610E+01
1.187886343E+01  1.152382755E+01
1.188543906E+01  1.279123878E+01
1.189201468E+01  1.335984993E+01
1.189859030E+01  1.323065853E+01
1.190516592E+01  1.205016613E+01
1.191174155E+01  1.153763103E+01
1.191831717E+01  1.136738873E+01
1.192489279E+01  1.184512234E+01
1.193146842E+01  1.156557846E+01
1.193804404E+01  1.136520100E+01
1.194461966E+01  1.125279903E+01
1.195119529E+01  1.082262993E+01
1.195777091E+01  8.975591660E+00
1.196434653E+01  9.085239410E+00
1.197092216E+01  8.810283661E+00
1.197749778E+01  9.319688797E+00
1.198407340E+01  8.821482658E+00
1.199064903E+01  1.014722633E+01
1.199722465E+01  1.227106190E+01
1.200380027E+01  1.387122917E+01
1.201037590E+01  1.443554115E+01
1.201695152E+01  1.471304131E+01
1.202352714E+01  1.420521259E+01
1.203010277E+01  1.323043346E+01
1.203667839E+01  1.206460190E+01
1.204325401E+01  1.193283463E+01
1.204982964E+01  1.191425228E+01
1.205640526E+01  1.246883488E+01
1.206298088E+01  1.189982414E+01
1.206955651E+01  1.143184757E+01
1.207613213E+01  1.075633144E+01
1.208270775E+01  1.142163372E+01
1.208928338E+01  1.246830082E+01
1.209585900E+01  1.458678055E+01
1.210243462E+01  1.484789467E+01
1.210901025E+01  1.479023457E+01
1.211558587E+01  1.447583294E+01
1.212216149E+01  1.453019524E+01
1.212873712E+01  1.366232586E+01
1.213531274E+01  1.216960812E+01
1.214188836E+01  1.208526325E+01
1.214846399E+01  1.222278881E+01
1.215503961E+01  1.350798416E+01
1.216161523E+01  1.347651577E+01
1.216819086E+01  1.423875237E+01
1.217476648E+01  1.541043949E+01
1.218134210E+01  1.302138042E+01
1.218791773E+01  1.060724163E+01
1.219449335E+01  8.304273605E+00
1.220106897E+01  8.095895767E+00
1.220764460E+01  7.589061737E+00
1.221422022E+01  7.884868145E+00
1.222079584E+01  7.929625034E+00
1.222737146E+01  8.524622917E+00
1.223394709E+01  1.013424015E+01
1.224052271E+01  1.149189663E+01
1.224709833E+01  1.178902054E+01
1.225367396E+01  1.200366116E+01
1.226024958E+01  1.161582279E+01
1.226682520E+01  1.166898346E+01
1.227340083E+01  1.140828419E+01
1.227997645E+01  1.183325958E+01
1.228655207E+01  1.304305363E+01
1.229312770E+01  1.375448608E+01
1.229970332E+01  1.398808861E+01
1.230627894E+01  1.474583817E+01
1.231285457E+01  1.719377327E+01
1.231943019E+01  1.869519615E+01
1.232600581E+01  2.019251823E+01
1.233258144E+01  1.963497925E+01
1.233915706E+01  1.899427986E+01
1.234573268E+01  1.887982368E+01
1.235230831E+01  2.005041885E+01
1.235888393E+01  2.102415848E+01
1.236545955E+01  2.217850304E+01
1.237203518E+01  2.281572723E+01
1.237861080E+01  2.309747124E+01
1.238518642E+01  2.382649231E+01
1.239176205E+01  2.438220978E+01
1.239833767E+01  2.453954506E+01
1.240491329E+01  2.597967720E+01
1.241148892E+01  2.821727371E+01
1.241806454E+01  3.035538483E+01
1.242464016E+01  3.275877762E+01
1.243121579E+01  3.427122116E+01
1.243779141E+01  3.622379303E+01
1.244436703E+01  3.763555908E+01
1.245094266E+01  3.879413605E+01
1.245751828E+01  3.861262512E+01
1.246409390E+01  3.786058044E+01
1.247066953E+01  3.689886475E+01
1.247724515E+01  3.634223557E+01
1.248382077E+01  3.579814148E+01
1.249039640E+01  3.490526581E+01
1.249697202E+01  3.640532684E+01
1.250354764E+01  3.760010529E+01
1.251012327E+01  3.811949539E+01
1.251669889E+01  3.835707092E+01
1.252327451E+01  3.773228073E+01
1.252985014E+01  3.802444077E+01
1.253642576E+01  3.879264450E+01
1.254300138E+01  3.991337585E+01
1.254957700E+01  3.940129852E+01
1.255615263E+01  3.954060745E+01
1.256272825E+01  4.111500931E+01
1.256930387E+01  4.285596466E+01
1.257587950E+01  4.277276230E+01
1.258245512E+01  4.243572998E+01
1.258903074E+01  4.086930084E+01
1.259560637E+01  4.038402557E+01
1.260218199E+01  4.141987228E+01
1.260875761E+01  4.396024323E+01
1.261533324E+01  4.588113403E+01
1.262190886E+01  4.692425156E+01
1.262848448E+01  4.639479446E+01
1.263506011E+01  4.626737595E+01
1.264163573E+01  4.662062836E+01
1.264821135E+01  4.836423111E+01
1.265478698E+01  5.009682846E+01
1.266136260E+01  5.205476761E+01
1.266793822E+01  5.224049759E+01
1.267451385E+01  5.287766266E+01
1.268108947E+01  5.397409439E+01
1.268766509E+01  5.612745667E+01
1.269424072E+01  5.945690536E+01
1.270081634E+01  6.221049881E+01
1.270739196E+01  6.464069366E+01
1.271396759E+01  6.556195068E+01
1.272054321E+01  6.726676941E+01
1.272711883E+01  6.881716919E+01
1.273369446E+01  6.955935669E+01
1.274027008E+01  7.030095673E+01
1.274684570E+01  7.212548065E+01
1.275342133E+01  7.272678375E+01
1.275999695E+01  7.195108032E+01
1.276657257E+01  7.124807739E+01
1.277314820E+01  7.000548553E+01
1.277972382E+01  7.013835144E+01
1.278629944E+01  7.025019836E+01
1.279287507E+01  6.884886169E+01
1.279945069E+01  6.759938049E+01
1.280602631E+01  6.444317627E+01
1.281260194E+01  6.250818253E+01
1.281917756E+01  6.082565689E+01
1.282575318E+01  6.069053268E+01
1.283232881E+01  5.850467682E+01
1.283890443E+01  5.550783539E+01
1.284548005E+01  5.259112930E+01
1.285205568E+01  5.032732391E+01
1.285863130E+01  4.951085663E+01
1.286520692E+01  4.743079376E+01
1.287178255E+01  4.605540466E+01
1.287835817E+01  4.482414246E+01
1.288493379E+01  4.278681946E+01
1.289150941E+01  4.113923645E+01
1.289808504E+01  4.003227615E+01
1.290466066E+01  3.922961807E+01
1.291123628E+01  3.735332489E+01
1.291781191E+01  3.712410736E+01
1.292438753E+01  3.665328979E+01
1.293096315E+01  3.570503998E+01
1.293753878E+01  3.418169022E+01
1.294411440E+01  3.352807236E+01
1.295069002E+01  3.256547165E+01
1.295726565E+01  3.097357368E+01
1.296384127E+01  3.084612656E+01
1.297041689E+01  3.106447411E+01
1.297699252E+01  2.997822571E+01
1.298356814E+01  2.961178780E+01
1.299014376E+01  2.922834396E+01
1.299671939E+01  2.900269318E+01
1.300329501E+01  2.940748787E+01
1.300987063E+01  2.843051720E+01
1.301644626E+01  2.722949219E+01
1.302302188E+01  2.796749115E+01
1.302959750E+01  2.718210793E+01
1.303617313E+01  2.571366882E+01
1.304274875E+01  2.548014069E+01
1.304932437E+01  2.483991241E+01
1.305590000E+01  2.461817360E+01
1.306247562E+01  2.544041061E+01
1.306905124E+01  2.686765099E+01
1.307562687E+01  2.851951790E+01
1.308220249E+01  3.087354469E+01
1.308877811E+01  3.229056549E+01
1.309535374E+01  3.551715851E+01
1.310192936E+01  3.879403687E+01
1.310850498E+01  3.979844284E+01
1.311508061E+01  4.077451324E+01
1.312165623E+01  4.181843185E+01
1.312823185E+01  4.513185501E+01
1.313480748E+01  4.933636093E+01
1.314138310E+01  5.381230927E+01
1.314795872E+01  5.748645401E+01
1.315453435E+01  6.010195923E+01
1.316110997E+01  6.391466904E+01
1.316768559E+01  7.000759888E+01
1.317426122E+01  7.652526093E+01
1.318083684E+01  8.282263947E+01
1.318741246E+01  8.915802002E+01
1.319398809E+01  9.847281647E+01
1.320056371E+01  1.074003067E+02
1.320713933E+01  1.182041779E+02
1.321371495E+01  1.292720947E+02
1.322029058E+01  1.433916626E+02
1.322686620E+01  1.569212799E+02
1.323344182E+01  1.707666779E+02
1.324001745E+01  1.838180084E+02
1.324659307E+01  1.992324982E+02
1.325316869E+01  2.126604919E+02
1.325974432E+01  2.279789734E+02
1.326631994E+01  2.397152557E+02
1.327289556E+01  2.541349487E+02
1.327947119E+01  2.669441223E+02
1.328604681E+01  2.782384644E+02
1.329262243E+01  2.850272217E+02
1.329919806E+01  2.944407959E+02
1.330577368E+01  2.948995361E+02
1.331234930E+01  2.909215393E+02
1.331892493E+01  2.817435913E+02
1.332550055E+01  2.699618835E+02
1.333207617E+01  2.559645538E+02
1.333865180E+01  2.386388397E+02
1.334522742E+01  2.205061951E+02
1.335180304E+01  2.051452179E+02
1.335837867E+01  1.884948578E+02
1.336495429E+01  1.764032593E+02
1.337152991E+01  1.648728333E+02
1.337810554E+01  1.565705719E+02
1.338468116E+01  1.477874756E+02
1.339125678E+01  1.362779083E+02
1.339783241E+01  1.243436356E+02
1.340440803E+01  1.129733963E+02
1.341098365E+01  1.037169800E+02
1.341755928E+01  9.464029694E+01
1.342413490E+01  8.642887878E+01
1.343071052E+01  7.873456573E+01
1.343728615E+01  7.228389740E+01
1.344386177E+01  6.649385834E+01
1.345043739E+01  6.071794891E+01
1.345701302E+01  5.504648590E+01
1.346358864E+01  5.164937210E+01
1.347016426E+01  4.816185379E+01
1.347673989E+01  4.459221268E+01
1.348331551E+01  4.110351944E+01
1.348989113E+01  3.853023911E+01
1.349646676E+01  3.573709488E+01
1.350304238E+01  3.256929779E+01
1.350961800E+01  3.018063545E+01
1.351619363E+01  2.784600067E+01
1.352276925E+01  2.738373756E+01
1.352934487E+01  2.590321350E+01
1.353592050E+01  2.323351288E+01
1.354249612E+01  2.033263588E+01
1.354907174E+01  1.942761803E+01
1.355564736E+01  1.815370369E+01
1.356222299E+01  1.766175842E+01
1.356879861E+01  1.789708900E+01
1.357537423E+01  1.772442627E+01
1.358194986E+01  1.711641693E+01
1.358852548E+01  1.711895180E+01
1.359510110E+01  1.532088470E+01
1.360167673E+01  1.498246193E+01
1.360825235E+01  1.321158409E+01
1.361482797E+01  1.339837646E+01
1.362140360E+01  1.248570347E+01
1.362797922E+01  1.145353413E+01
1.363455484E+01  1.074668407E+01
1.364113047E+01  1.100234985E+01
1.364770609E+01  1.085724354E+01
1.365428171E+01  1.061262321E+01
1.366085734E+01  1.042277622E+01
1.366743296E+01  1.158115101E+01
1.367400858E+01  1.190414333E+01
1.368058421E+01  1.311195946E+01
1.368715983E+01  1.301220512E+01
1.369373545E+01  1.335536003E+01
1.370031108E+01  1.339043522E+01
1.370688670E+01  1.379662132E+01
1.371346232E+01  1.380974674E+01
1.372003795E+01  1.323106861E+01
1.372661357E+01  1.303665161E+01
1.373318919E+01  1.444572163E+01
1.373976482E+01  1.461940002E+01
1.374634044E+01  1.452935410E+01
1.375291606E+01  1.582645035E+01
1.375949169E+01  1.811956406E+01
1.376606731E+01  1.993895340E+01
1.377264293E+01  2.156878662E+01
1.377921856E+01  2.284010506E+01
1.378579418E+01  2.400338364E+01
1.379236980E+01  2.496144104E+01
1.379894543E+01  2.488613701E+01
1.380552105E+01  2.611388588E+01
1.381209667E+01  2.793617439E+01
1.381867230E+01  2.991890717E+01
1.382524792E+01  3.359869385E+01
1.383182354E+01  3.637785721E+01
1.383839917E+01  3.850346375E+01
1.384497479E+01  3.905508041E+01
1.385155041E+01  3.893308640E+01
1.385812604E+01  3.911256409E+01
1.386470166E+01  4.050658798E+01
1.387127728E+01  4.310489273E+01
1.387785290E+01  4.598460388E+01
1.388442853E+01  4.828585434E+01
1.389100415E+01  4.894514847E+01
1.389757977E+01  5.048005676E+01
1.390415540E+01  5.087005234E+01
1.391073102E+01  5.139833069E+01
1.391730664E+01  5.360589218E+01
1.392388227E+01  5.509575653E+01
1.393045789E+01  5.410618973E+01
1.393703351E+01  5.228659821E+01
1.394360914E+01  5.252222061E+01
1.395018476E+01  5.206988525E+01
1.395676038E+01  5.181239700E+01
1.396333601E+01  5.106272888E+01
1.396991163E+01  5.054988098E+01
1.397648725E+01  5.069962311E+01
1.398306288E+01  4.912864304E+01
1.398963850E+01  4.697902679E+01
1.399621412E+01  4.453787613E+01
1.400278975E+01  4.262158203E+01
1.400936537E+01  4.246647263E+01
1.401594099E+01  4.220290756E+01
1.402251662E+01  4.070100021E+01
1.402909224E+01  3.880790710E+01
1.403566786E+01  3.720184708E+01
1.404224349E+01  3.697705078E+01
1.404881911E+01  3.724679184E+01
1.405539473E+01  3.558235550E+01
1.406197036E+01  3.524203110E+01
1.406854598E+01  3.537278366E+01
1.407512160E+01  3.511084366E+01
1.408169723E+01  3.326478958E+01
1.408827285E+01  3.217739487E+01
1.409484847E+01  3.145411491E+01
1.410142410E+01  3.139572716E+01
1.410799972E+01  2.999245644E+01
1.411457534E+01  2.849087906E+01
1.412115097E+01  2.655944061E+01
1.412772659E+01  2.555604553E+01
1.413430221E+01  2.485128975E+01
1.414087784E+01  2.414340591E+01
1.414745346E+01  2.339136887E+01
1.415402908E+01  2.406538391E+01
1.416060471E+01  2.427628136E+01
1.416718033E+01  2.449377632E+01
1.417375595E+01  2.341610336E+01
1.418033158E+01  2.190946007E+01
1.418690720E+01  2.174385452E+01
1.419348282E+01  2.115121078E+01
1.420005844E+01  2.086540413E+01
1.420663407E+01  2.196161652E+01
1.421320969E+01  2.166542244E+01
1.421978531E+01  2.075073814E+01
1.422636094E+01  1.938209915E+01
1.423293656E+01  1.899113464E+01
1.423951218E+01  1.920722961E+01
1.424608781E+01  1.974521065E+01
1.425266343E+01  1.972616386E+01
1.425923905E+01  1.974284935E+01
1.426581468E+01  2.025814247E+01
1.427239030E+01  2.041217422E+01
1.427896592E+01  1.975717354E+01
1.428554155E+01  1.799039650E+01
1.429211717E+01  1.669239807E+01
1.429869279E+01  1.735535622E+01
1.430526842E+01  1.806959152E+01
1.431184404E+01  1.909241867E+01
1.431841966E+01  2.039550591E+01
1.432499529E+01  2.086946869E+01
1.433157091E+01  1.943715096E+01
1.433814653E+01  1.750625801E+01
1.434472216E+01  1.746008301E+01
1.435129778E+01  1.683475113E+01
1.435787340E+01  1.765125275E+01
1.436444903E+01  1.798330879E+01
1.437102465E+01  1.826304245E+01
1.437760027E+01  1.871457100E+01
1.438417590E+01  1.874023247E+01
1.439075152E+01  1.879900551E+01
1.439732714E+01  1.846656990E+01
1.440390277E+01  1.873266792E+01
1.441047839E+01  1.975305939E+01
1.441705401E+01  2.017715263E+01
1.442362964E+01  2.177692032E+01
1.443020526E+01  2.196690941E+01
1.443678088E+01  2.087651443E+01
1.444335651E+01  1.970446205E+01
1.444993213E+01  2.027008820E+01
1.445650775E+01  2.032680893E+01
1.446308338E+01  2.059825706E+01
1.446965900E+01  1.974458694E+01
1.447623462E+01  1.912419891E+01
1.448281025E+01  1.884109497E+01
1.448938587E+01  1.769654465E+01
1.449596149E+01  1.786388779E+01
1.450253712E+01  1.865464592E+01
1.450911274E+01  1.903512955E+01
1.451568836E+01  1.952291679E+01
1.452226399E+01  1.913509369E+01
1.452883961E+01  1.778133202E+01
1.453541523E+01  1.579268265E+01
1.454199085E+01  1.542207718E+01
1.454856648E+01  1.600984573E+01
1.455514210E+01  1.591633797E+01
1.456171772E+01  1.614399719E+01
1.456829335E+01  1.561176586E+01
1.457486897E+01  1.405157661E+01
1.458144459E+01  1.216655254E+01
1.458802022E+01  1.091714287E+01
1.459459584E+01  1.151867771E+01
1.460117146E+01  1.157808971E+01
1.460774709E+01  1.209049320E+01
1.461432271E+01  1.322385693E+01
1.462089833E+01  1.402895927E+01
1.462747396E+01  1.389984322E+01
1.463404958E+01  1.410750389E+01
1.464062520E+01  1.445516109E+01
1.464720083E+01  1.510785484E+01
1.465377645E+01  1.583609104E+01
1.466035207E+01  1.506809235E+01
1.466692770E+01  1.406850719E+01
1.467350332E+01  1.558294201E+01
1.468007894E+01  1.593952179E+01
1.468665457E+01  1.675543404E+01
1.469323019E+01  1.633683586E+01
1.469980581E+01  1.578724098E+01
1.470638144E+01  1.610030746E+01
1.471295706E+01  1.654361534E+01
1.471953268E+01  1.729490471E+01
1.472610831E+01  1.647527122E+01
1.473268393E+01  1.556860924E+01
1.473925955E+01  1.452658463E+01
1.474583518E+01  1.480916309E+01
1.475241080E+01  1.565854263E+01
1.475898642E+01  1.602736473E+01
1.476556205E+01  1.690636444E+01
1.477213767E+01  1.616566658E+01
1.477871329E+01  1.476719761E+01
1.478528892E+01  1.490676785E+01
1.479186454E+01  1.585294437E+01
1.479844016E+01  1.545779133E+01
1.480501579E+01  1.419983673E+01
1.481159141E+01  1.242675304E+01
1.481816703E+01  1.268933392E+01
1.482474266E+01  1.371513557E+01
1.483131828E+01  1.350270844E+01
1.483789390E+01  1.223126888E+01
1.484446953E+01  1.096430969E+01
1.485104515E+01  1.142792416E+01
1.485762077E+01  1.205425739E+01
1.486419639E+01  1.236920738E+01
1.487077202E+01  1.247777271E+01
1.487734764E+01  1.121249294E+01
1.488392326E+01  1.086684418E+01
1.489049889E+01  1.213371658E+01
1.489707451E+01  1.176996613E+01
1.490365013E+01  1.070481014E+01
1.491022576E+01  9.163856506E+00
1.491680138E+01  7.915677547E+00
1.492337700E+01  7.970548630E+00
1.492995263E+01  9.025265694E+00
1.493652825E+01  9.761001587E+00
1.494310387E+01  1.074369240E+01
1.494967950E+01  1.148214817E+01
1.495625512E+01  1.151447392E+01
1.496283074E+01  1.193883228E+01
1.496940637E+01  1.180748940E+01
1.497598199E+01  1.224009228E+01
1.498255761E+01  1.181478500E+01
1.498913324E+01  1.009310913E+01
1.499570886E+01  9.161996841E+00
1.500228448E+01  9.194807053E+00
1.500886011E+01  1.098403835E+01
1.501543573E+01  1.277824306E+01
1.502201135E+01  1.351591682E+01
1.502858698E+01  1.342754555E+01
1.503516260E+01  1.217281437E+01
1.504173822E+01  1.100955582E+01
1.504831385E+01  1.011014938E+01
1.505488947E+01  1.002637196E+01
1.506146509E+01  9.565859795E+00
1.506804072E+01  8.890738487E+00
1.507461634E+01  7.606009960E+00
1.508119196E+01  5.966574192E+00
1.508776759E+01  6.099892139E+00
1.509434321E+01  6.321413994E+00
1.510091883E+01  7.164850712E+00
1.510749446E+01  7.932469368E+00
1.511407008E+01  8.219505310E+00
1.512064570E+01  8.298928261E+00
1.512722133E+01  9.525743484E+00
1.513379695E+01  1.019635773E+01
1.514037257E+01  8.910891533E+00
1.514694820E+01  8.122983932E+00
1.515352382E+01  7.455704212E+00
1.516009944E+01  8.304585457E+00
1.516667507E+01  8.090552330E+00
1.517325069E+01  8.274077415E+00
1.517982631E+01  8.859584808E+00
1.518640194E+01  9.222586632E+00
1.519297756E+01  9.810379028E+00
1.519955318E+01  1.022259617E+01
1.520612880E+01  1.082743263E+01
1.521270443E+01  1.129483795E+01
1.521928005E+01  1.153450966E+01
1.522585567E+01  1.233016777E+01
1.523243130E+01  1.171944046E+01
1.523900692E+01  1.152852917E+01
1.524558254E+01  1.142982674E+01
1.525215817E+01  1.170558929E+01
1.525873379E+01  1.232850361E+01
1.526530941E+01  1.428248692E+01
1.527188504E+01  1.468084908E+01
1.527846066E+01  1.536004734E+01
1.528503628E+01  1.633720016E+01
1.529161191E+01  1.690286255E+01
1.529818753E+01  1.653802299E+01
1.530476315E+01  1.676467896E+01
1.531133878E+01  1.769419098E+01
1.531791440E+01  1.863224983E+01
1.532449002E+01  1.954421234E+01
1.533106565E+01  2.045256615E+01
1.533764127E+01  2.155020905E+01
1.534421689E+01  2.204859352E+01
1.535079252E+01  2.414207649E+01
1.535736814E+01  2.517492485E+01
1.536394376E+01  2.628582954E+01
1.537051939E+01  2.683272362E+01
1.537709501E+01  2.828242874E+01
1.538367063E+01  2.966572571E+01
1.539024626E+01  3.176535034E+01
1.539682188E+01  3.378884125E+01
1.540339750E+01  3.640907288E+01
1.540997313E+01  4.000350189E+01
1.541654875E+01  4.419812012E+01
1.542312437E+01  4.858914185E+01
1.542970000E+01  5.259553146E+01
1.543627562E+01  5.546339417E+01
1.544285124E+01  5.791100693E+01
1.544942687E+01  6.021524811E+01
1.545600249E+01  6.324722290E+01
1.546257811E+01  6.845274353E+01
1.546915374E+01  7.620195770E+01
1.547572936E+01  8.412084198E+01
1.548230498E+01  9.223480225E+01
1.548888061E+01  1.012015762E+02
1.549545623E+01  1.130841675E+02
1.550203185E+01  1.251477280E+02
1.550860748E+01  1.381749878E+02
1.551518310E+01  1.520800171E+02
1.552175872E+01  1.684614716E+02
1.552833434E+01  1.870957336E+02
1.553490997E+01  2.067225647E+02
1.554148559E+01  2.266876984E+02
1.554806121E+01  2.494476776E+02
1.555463684E+01  2.741060181E+02
1.556121246E+01  3.001867065E+02
1.556778808E+01  3.241941223E+02
1.557436371E+01  3.477738342E+02
1.558093933E+01  3.734448242E+02
1.558751495E+01  4.009654846E+02
1.559409058E+01  4.318206787E+02
1.560066620E+01  4.606856995E+02
1.560724182E+01  4.818471985E+02
1.561381745E+01  4.922026672E+02
1.562039307E+01  4.855606689E+02
1.562696869E+01  4.566957092E+02
1.563354432E+01  4.236546326E+02
1.564011994E+01  3.863369141E+02
1.564669556E+01  3.535935669E+02
1.565327119E+01  3.226922607E+02
1.565984681E+01  2.971286011E+02
1.566642243E+01  2.736657715E+02
1.567299806E+01  2.542730560E+02
1.567957368E+01  2.386086426E+02
1.568614930E+01  2.240348511E+02
1.569272493E+01  2.106654968E+02
1.569930055E+01  1.975972443E+02
1.570587617E+01  1.867749329E+02
1.571245180E+01  1.752596130E+02
1.571902742E+01  1.660493622E+02
1.572560304E+01  1.557100830E+02
1.573217867E+01  1.452813416E+02
1.573875429E+01  1.354428406E+02
1.574532991E+01  1.261716309E+02
1.575190554E+01  1.179418488E+02
1.575848116E+01  1.130113068E+02
1.576505678E+01  1.092149658E+02
1.577163241E+01  1.043619232E+02
1.577820803E+01  1.007861481E+02
1.578478365E+01  9.576305389E+01
1.579135928E+01  9.273550415E+01
1.579793490E+01  9.000086212E+01
1.580451052E+01  8.686624908E+01
1.581108615E+01  8.294740295E+01
1.581766177E+01  7.862761688E+01
1.582423739E+01  7.437172699E+01
1.583081302E+01  7.099174500E+01
1.583738864E+01  6.768201447E+01
1.584396426E+01  6.331557083E+01
1.585053988E+01  5.906379700E+01
1.585711551E+01  5.510442734E+01
1.586369113E+01  5.113277435E+01
1.587026675E+01  4.844375229E+01
1.587684238E+01  4.732544708E+01
1.588341800E+01  4.613430405E+01
1.588999362E+01  4.412373352E+01
1.589656925E+01  4.322733307E+01
1.590314487E+01  4.225271606E+01
1.590972049E+01  4.008659744E+01
1.591629612E+01  3.760934830E+01
1.592287174E+01  3.583903885E+01
1.592944736E+01  3.598123550E+01
1.593602299E+01  3.662236023E+01
1.594259861E+01  3.725655746E+01
1.594917423E+01  3.628275299E+01
1.595574986E+01  3.641189194E+01
1.596232548E+01  3.493547058E+01
1.596890110E+01  3.332713318E+01
1.597547673E+01  3.063472939E+01
1.598205235E+01  2.882603836E+01
1.598862797E+01  2.717010689E+01
1.599520360E+01  2.620258141E+01
1.600177922E+01  2.498108292E+01
1.600835484E+01  2.402465820E+01
1.601493047E+01  2.381866264E+01
1.602150609E+01  2.280206680E+01
1.602808171E+01  2.183815002E+01
1.603465734E+01  2.034488869E+01
1.604123296E+01  1.957619095E+01
1.604780858E+01  1.950373459E+01
1.605438421E+01  2.040340424E+01
1.606095983E+01  2.080010223E+01
1.606753545E+01  2.052585983E+01
1.607411108E+01  1.950743294E+01
1.608068670E+01  1.914179611E+01
1.608726232E+01  1.938255692E+01
1.609383795E+01  1.935129547E+01
1.610041357E+01  1.936050797E+01
1.610698919E+01  1.958304405E+01
1.611356482E+01  1.987436104E+01
1.612014044E+01  2.108211327E+01
1.612671606E+01  2.182250404E+01
1.613329169E+01  2.227520752E+01
1.613986731E+01  2.210965347E+01
1.614644293E+01  2.224135590E+01
1.615301856E+01  2.321180916E+01
1.615959418E+01  2.501856041E+01
1.616616980E+01  2.705808067E+01
1.617274543E+01  2.945438004E+01
1.617932105E+01  3.201945877E+01
1.618589667E+01  3.379822159E+01
1.619247229E+01  3.513050079E+01
1.619904792E+01  3.645524597E+01
1.620562354E+01  3.809714890E+01
1.621219916E+01  3.986674118E+01
1.621877479E+01  4.265121841E+01
1.622535041E+01  4.538708496E+01
1.623192603E+01  4.885948563E+01
1.623850166E+01  5.251908875E+01
1.624507728E+01  5.663834381E+01
1.625165290E+01  6.299897385E+01
1.625822853E+01  6.790614319E+01
1.626480415E+01  7.150241852E+01
1.627137977E+01  7.547967529E+01
1.627795540E+01  7.876564789E+01
1.628453102E+01  8.099557495E+01
1.629110664E+01  8.296485901E+01
1.629768227E+01  8.836929321E+01
1.630425789E+01  9.242224121E+01
1.631083351E+01  9.795768738E+01
1.631740914E+01  9.850638580E+01
1.632398476E+01  9.885691071E+01
1.633056038E+01  9.599411011E+01
1.633713601E+01  8.968458557E+01
1.634371163E+01  8.410265350E+01
1.635028725E+01  7.871411896E+01
1.635686288E+01  7.510835266E+01
1.636343850E+01  7.029900360E+01
1.637001412E+01  6.674311829E+01
1.637658975E+01  6.276391983E+01
1.638316537E+01  5.831161499E+01
1.638974099E+01  5.487154388E+01
1.639631662E+01  5.190269470E+01
1.640289224E+01  4.933474350E+01
1.640946786E+01  4.991280746E+01
1.641604349E+01  5.010514832E+01
1.642261911E+01  4.952601242E+01
1.642919473E+01  4.552793503E+01
1.643577036E+01  4.318122101E+01
1.644234598E+01  4.118557358E+01
1.644892160E+01  4.020211411E+01
1.645549723E+01  3.885778427E+01
1.646207285E+01  3.736644745E+01
1.646864847E+01  3.560357666E+01
1.647522410E+01  3.468000031E+01
1.648179972E+01  3.446630859E+01
1.648837534E+01  3.412655258E+01
1.649495097E+01  3.349908829E+01
1.650152659E+01  3.317522049E+01
1.650810221E+01  3.289857101E+01
1.651467783E+01  3.138739204E+01
1.652125346E+01  3.070464897E+01
1.652782908E+01  2.959251213E+01
1.653440470E+01  2.862420273E+01
1.654098033E+01  2.894276428E+01
1.654755595E+01  2.894368744E+01
1.655413157E+01  2.877392006E+01
1.656070720E+01  2.801547432E+01
1.656728282E+01  2.737389565E+01
1.657385844E+01  2.826517868E+01
1.658043407E+01  2.812191772E+01
1.658700969E+01  2.827710152E+01
1.659358531E+01  2.827807426E+01
1.660016094E+01  2.965020561E+01
1.660673656E+01  3.127824402E+01
1.661331218E+01  3.319000244E+01
1.661988781E+01  3.468087387E+01
1.662646343E+01  3.546959305E+01
1.663303905E+01  3.569775009E+01
1.663961468E+01  3.652938843E+01
1.664619030E+01  3.727259827E+01
1.665276592E+01  3.804016876E+01
1.665934155E+01  3.865190887E+01
1.666591717E+01  3.931679153E+01
1.667249279E+01  4.069984818E+01
1.667906842E+01  4.070586014E+01
1.668564404E+01  4.061850739E+01
1.669221966E+01  4.028446198E+01
1.669879529E+01  4.017149353E+01
1.670537091E+01  4.145440292E+01
1.671194653E+01  4.068738174E+01
1.671852216E+01  4.041534805E+01
1.672509778E+01  4.058507538E+01
1.673167340E+01  4.118484497E+01
1.673824903E+01  4.208525085E+01
1.674482465E+01  4.239322662E+01
1.675140027E+01  4.188610840E+01
1.675797590E+01  4.209318924E+01
1.676455152E+01  4.191387177E+01
1.677112714E+01  4.242677307E+01
1.677770277E+01  4.227201080E+01
1.678427839E+01  4.274450302E+01
1.679085401E+01  4.322070694E+01
1.679742964E+01  4.471085739E+01
1.680400526E+01  4.574522400E+01
1.681058088E+01  4.604204941E+01
1.681715651E+01  4.623852921E+01
1.682373213E+01  4.671648026E+01
1.683030775E+01  4.693877792E+01
1.683688338E+01  4.651038361E+01
1.684345900E+01  4.579846573E+01
1.685003462E+01  4.594069290E+01
1.685661024E+01  4.677299118E+01
1.686318587E+01  4.860441208E+01
1.686976149E+01  5.078747177E+01
1.687633711E+01  5.152332306E+01
1.688291274E+01  5.228605652E+01
1.688948836E+01  5.274801636E+01
1.689606398E+01  5.199803925E+01
1.690263961E+01  5.189743423E+01
1.690921523E+01  5.216199493E+01
1.691579085E+01  5.335565948E+01
1.692236648E+01  5.332508469E+01
1.692894210E+01  5.281194687E+01
1.693551772E+01  5.213556290E+01
1.694209335E+01  5.286328888E+01
1.694866897E+01  5.297118378E+01
1.695524459E+01  5.287182236E+01
1.696182022E+01  5.145484161E+01
1.696839584E+01  4.941308975E+01
1.697497146E+01  4.869284439E+01
1.698154709E+01  4.811098480E+01
1.698812271E+01  4.720900726E+01
1.699469833E+01  4.571102142E+01
1.700127396E+01  4.481525803E+01
1.700784958E+01  4.198362350E+01
1.701442520E+01  4.041875076E+01
1.702100083E+01  3.940628052E+01
1.702757645E+01  3.840909958E+01
1.703415207E+01  3.793111038E+01
1.704072770E+01  3.690150833E+01
1.704730332E+01  3.668162155E+01
1.705387894E+01  3.585689926E+01
1.706045457E+01  3.434872437E+01
1.706703019E+01  3.427770615E+01
1.707360581E+01  3.401689148E+01
1.708018144E+01  3.080601883E+01
1.708675706E+01  2.865974045E+01
1.709333268E+01  2.648430252E+01
1.709990831E+01  2.574991608E+01
1.710648393E+01  2.525394058E+01
1.711305955E+01  2.480789566E+01
1.711963518E+01  2.431753349E+01
1.712621080E+01  2.349622726E+01
1.713278642E+01  2.308029366E+01
1.713936205E+01  2.273817825E+01
1.714593767E+01  2.122328949E+01
1.715251329E+01  1.989596176E+01
1.715908892E+01  1.846955872E+01
1.716566454E+01  1.740988350E+01
1.717224016E+01  1.672619438E+01
1.717881578E+01  1.759278870E+01
1.718539141E+01  1.835339546E+01
1.719196703E+01  1.843719101E+01
1.719854265E+01  1.711612511E+01
1.720511828E+01  1.694046783E+01
1.721169390E+01  1.642337799E+01
1.721826952E+01  1.612733459E+01
1.722484515E+01  1.612896919E+01
1.723142077E+01  1.481937599E+01
1.723799639E+01  1.356815815E+01
1.724457202E+01  1.283867264E+01
1.725114764E+01  1.276127148E+01
1.725772326E+01  1.345067883E+01
1.726429889E+01  1.422230625E+01
1.727087451E+01  1.552291489E+01
1.727745013E+01  1.691401291E+01
1.728402576E+01  1.584480667E+01
1.729060138E+01  1.519858551E+01
1.729717700E+01  1.560180378E+01
1.730375263E+01  1.712623405E+01
1.731032825E+01  1.658095169E+01
1.731690387E+01  1.502064323E+01
1.732347950E+01  1.327685070E+01
1.733005512E+01  1.267525768E+01
1.733663074E+01  1.296635628E+01
1.734320637E+01  1.336450577E+01
1.734978199E+01  1.365145111E+01
1.735635761E+01  1.272173119E+01
1.736293324E+01  1.220621204E+01
1.736950886E+01  1.102580261E+01
1.737608448E+01  1.035092068E+01
1.738266011E+01  1.036565781E+01
1.738923573E+01  9.432815552E+00
1.739581135E+01  8.879064560E+00
1.740238698E+01  9.484683990E+00
1.740896260E+01  1.003630257E+01
1.741553822E+01  9.867910385E+00
1.742211385E+01  1.054347610E+01
1.742868947E+01  1.090968132E+01
1.743526509E+01  1.103293324E+01
1.744184072E+01  1.154115963E+01
1.744841634E+01  1.150467014E+01
1.745499196E+01  9.825312614E+00
1.746156759E+01  9.720854759E+00
1.746814321E+01  1.077038574E+01
1.747471883E+01  1.220778179E+01
1.748129446E+01  1.239045048E+01
1.748787008E+01  1.179542542E+01
1.749444570E+01  1.205501366E+01
1.750102132E+01  1.187378693E+01
1.750759695E+01  1.265651035E+01
1.751417257E+01  1.250032997E+01
1.752074819E+01  1.311372185E+01
1.752732382E+01  1.374715137E+01
1.753389944E+01  1.416524792E+01
1.754047506E+01  1.335822392E+01
1.754705069E+01  1.351209450E+01
1.755362631E+01  1.478602123E+01
1.756020193E+01  1.484649277E+01
1.756677756E+01  1.392103100E+01
1.757335318E+01  1.416245556E+01
1.757992880E+01  1.440669441E+01
1.758650443E+01  1.362688446E+01
1.759308005E+01  1.188893700E+01
1.759965567E+01  1.164841843E+01
1.760623130E+01  1.152349186E+01
1.761280692E+01  1.336962986E+01
1.761938254E+01  1.488849926E+01
1.762595817E+01  1.715823364E+01
1.763253379E+01  1.811341476E+01
1.763910941E+01  1.715933228E+01
1.764568504E+01  1.682871437E+01
1.765226066E+01  1.749316025E+01
1.765883628E+01  1.861118889E+01
1.766541191E+01  1.967207336E+01
1.767198753E+01  2.023931313E+01
1.767856315E+01  1.916986084E+01
1.768513878E+01  1.990905190E+01
1.769171440E+01  2.073766518E+01
1.769829002E+01  2.085884476E+01
1.770486565E+01  1.921889687E+01
1.771144127E+01  1.771773720E+01
1.771801689E+01  1.711416817E+01
1.772459252E+01  1.702538490E+01
1.773116814E+01  1.731223679E+01
1.773774376E+01  1.774669838E+01
1.774431939E+01  1.768082047E+01
1.775089501E+01  1.623032570E+01
1.775747063E+01  1.552557468E+01
1.776404626E+01  1.433316231E+01
1.777062188E+01  1.559790039E+01
1.777719750E+01  1.796772194E+01
1.778377313E+01  1.912766647E+01
1.779034875E+01  2.005183792E+01
1.779692437E+01  2.042673683E+01
1.780350000E+01  2.137099266E+01
1.781007562E+01  2.280401421E+01
1.781665124E+01  2.283027077E+01
1.782322687E+01  2.157229424E+01
1.782980249E+01  2.219949913E+01
1.783637811E+01  2.278901100E+01
1.784295373E+01  2.314207649E+01
1.784952936E+01  2.152919006E+01
1.785610498E+01  2.084046936E+01
1.786268060E+01  2.120774269E+01
1.786925623E+01  2.201967239E+01
1.787583185E+01  2.099793434E+01
1.788240747E+01  1.998627663E+01
1.788898310E+01  2.010287094E+01
1.789555872E+01  2.086480904E+01
1.790213434E+01  2.176087761E+01
1.790870997E+01  2.175984001E+01
1.791528559E+01  2.229335594E+01
1.792186121E+01  2.228674126E+01
1.792843684E+01  2.222292900E+01
1.793501246E+01  2.314540482E+01
1.794158808E+01  2.295116806E+01
1.794816371E+01  2.311730194E+01
1.795473933E+01  2.326395035E+01
1.796131495E+01  2.406594658E+01
1.796789058E+01  2.500866890E+01
1.797446620E+01  2.633189392E+01
1.798104182E+01  2.704345131E+01
1.798761745E+01  2.745586586E+01
1.799419307E+01  2.747393608E+01
1.800076869E+01  2.690675545E+01
1.800734432E+01  2.574652100E+01
1.801391994E+01  2.510407448E+01
1.802049556E+01  2.562638283E+01
1.802707119E+01  2.492330551E+01
1.803364681E+01  2.450849724E+01
1.804022243E+01  2.457090759E+01
1.804679806E+01  2.533219528E+01
1.805337368E+01  2.560629463E+01
1.805994930E+01  2.608018875E+01
1.806652493E+01  2.592523384E+01
1.807310055E+01  2.547439766E+01
1.807967617E+01  2.584288406E+01
1.808625180E+01  2.689881516E+01
1.809282742E+01  2.740826797E+01
1.809940304E+01  2.792296791E+01
1.810597867E+01  2.830665016E+01
1.811255429E+01  2.821504593E+01
1.811912991E+01  2.713006401E+01
1.812570554E+01  2.531828308E+01
1.813228116E+01  2.356679535E+01
1.813885678E+01  2.296446037E+01
1.814543241E+01  2.459574318E+01
1.815200803E+01  2.545283127E+01
1.815858365E+01  2.435653687E+01
1.816515927E+01  2.307982063E+01
1.817173490E+01  2.202455711E+01
1.817831052E+01  2.167807388E+01
1.818488614E+01  2.150426674E+01
1.819146177E+01  2.176049232E+01
1.819803739E+01  2.287305641E+01
1.820461301E+01  2.419892693E+01
1.821118864E+01  2.488853264E+01
1.821776426E+01  2.495899773E+01
1.822433988E+01  2.449190140E+01
1.823091551E+01  2.351754570E+01
1.823749113E+01  2.321271896E+01
1.824406675E+01  2.368437386E+01
1.825064238E+01  2.431338692E+01
1.825721800E+01  2.427457047E+01
1.826379362E+01  2.492974281E+01
1.827036925E+01  2.419784164E+01
1.827694487E+01  2.514330482E+01
1.828352049E+01  2.492186928E+01
1.829009612E+01  2.390460205E+01
1.829667174E+01  2.266128349E+01
1.830324736E+01  2.150046539E+01
1.830982299E+01  2.155930138E+01
1.831639861E+01  2.167221069E+01
1.832297423E+01  2.121462059E+01
1.832954986E+01  2.056440163E+01
1.833612548E+01  2.199834633E+01
1.834270110E+01  2.288993263E+01
1.834927673E+01  2.404720688E+01
1.835585235E+01  2.468593788E+01
1.836242797E+01  2.464934158E+01
1.836900360E+01  2.468151665E+01
1.837557922E+01  2.377022743E+01
1.838215484E+01  2.253703117E+01
1.838873047E+01  2.178025818E+01
1.839530609E+01  2.091201401E+01
1.840188171E+01  2.185125160E+01
1.840845734E+01  2.337289047E+01
1.841503296E+01  2.326260185E+01
1.842160858E+01  2.360879898E+01
1.842818421E+01  2.324745750E+01
1.843475983E+01  2.330557632E+01
1.844133545E+01  2.260644913E+01
1.844791108E+01  2.310178185E+01
1.845448670E+01  2.213830566E+01
1.846106232E+01  2.127172852E+01
1.846763795E+01  2.111097527E+01
1.847421357E+01  2.134700012E+01
1.848078919E+01  2.289925575E+01
1.848736482E+01  2.443768120E+01
1.849394044E+01  2.430797386E+01
1.850051606E+01  2.381725502E+01
1.850709168E+01  2.233268356E+01
1.851366731E+01  2.212765503E+01
1.852024293E+01  2.211129761E+01
1.852681855E+01  2.030551910E+01
1.853339418E+01  1.861551285E+01
1.853996980E+01  1.790887260E+01
1.854654542E+01  1.809712791E+01
1.855312105E+01  1.859521675E+01
1.855969667E+01  1.900460625E+01
1.856627229E+01  2.023145103E+01
1.857284792E+01  2.215065575E+01
1.857942354E+01  2.221282387E+01
1.858599916E+01  2.178555489E+01
1.859257479E+01  2.089222527E+01
1.859915041E+01  2.153767014E+01
1.860572603E+01  2.202508354E+01
1.861230166E+01  2.225045013E+01
1.861887728E+01  2.252236557E+01
1.862545290E+01  2.411136055E+01
1.863202853E+01  2.512294006E+01
1.863860415E+01  2.464065552E+01
1.864517977E+01  2.326076126E+01
1.865175540E+01  2.252581024E+01
1.865833102E+01  2.265365219E+01
1.866490664E+01  2.293489265E+01
1.867148227E+01  2.305418015E+01
1.867805789E+01  2.334751701E+01
1.868463351E+01  2.390284920E+01
1.869120914E+01  2.483252716E+01
1.869778476E+01  2.477914619E+01
1.870436038E+01  2.464505386E+01
1.871093601E+01  2.500346756E+01
1.871751163E+01  2.480844307E+01
1.872408725E+01  2.389487076E+01
1.873066288E+01  2.469332123E+01
1.873723850E+01  2.694293785E+01
1.874381412E+01  2.900442886E+01
1.875038975E+01  3.050509262E+01
1.875696537E+01  3.212446213E+01
1.876354099E+01  3.379061127E+01
1.877011662E+01  3.547994995E+01
1.877669224E+01  3.806929398E+01
1.878326786E+01  4.211808777E+01
1.878984349E+01  4.514722824E+01
1.879641911E+01  4.753359222E+01
1.880299473E+01  4.910818863E+01
1.880957036E+01  5.073379898E+01
1.881614598E+01  5.270780563E+01
1.882272160E+01  5.510008621E+01
1.882929722E+01  5.700837326E+01
1.883587285E+01  5.956900787E+01
1.884244847E+01  6.052869415E+01
1.884902409E+01  6.129333115E+01
1.885559972E+01  6.070631790E+01
1.886217534E+01  5.934494019E+01
1.886875096E+01  5.620150375E+01
1.887532659E+01  5.218675232E+01
1.888190221E+01  4.796334076E+01
1.888847783E+01  4.357622528E+01
1.889505346E+01  4.055614853E+01
1.890162908E+01  3.804220581E+01
1.890820470E+01  3.514903641E+01
1.891478033E+01  3.370022202E+01
1.892135595E+01  3.193630028E+01
1.892793157E+01  2.877550697E+01
1.893450720E+01  2.683772278E+01
1.894108282E+01  2.627358818E+01
1.894765844E+01  2.519907379E+01
1.895423407E+01  2.402314949E+01
1.896080969E+01  2.252444077E+01
1.896738531E+01  2.127410316E+01
1.897396094E+01  2.037362289E+01
1.898053656E+01  1.788304138E+01
1.898711218E+01  1.551237202E+01
1.899368781E+01  1.269922447E+01
1.900026343E+01  1.200285053E+01
1.900683905E+01  1.168957615E+01
1.901341468E+01  1.107019043E+01
1.901999030E+01  1.049699116E+01
1.902656592E+01  1.039404297E+01
1.903314155E+01  9.695137978E+00
1.903971717E+01  8.770040512E+00
1.904629279E+01  8.947422028E+00
1.905286842E+01  8.400090218E+00
1.905944404E+01  6.747525692E+00
1.906601966E+01  5.370325089E+00
1.907259529E+01  4.113823891E+00
1.907917091E+01  4.449731350E+00
1.908574653E+01  3.147538185E+00
1.909232216E+01  8.766010404E-01
1.909889778E+01  -3.011464477E-01
1.910547340E+01  2.724613249E-01
1.911204903E+01  1.494928718E+00
1.911862465E+01  2.738976955E+00
1.912520027E+01  2.184116840E+00
1.913177590E+01  1.798115015E+00
1.913835152E+01  1.198327065E+00
1.914492714E+01  8.982688189E-01
1.915150276E+01  1.312960505E+00
1.915807839E+01  1.165620804E+00
1.916465401E+01  1.849913120E+00
1.917122963E+01  1.803902864E+00
1.917780526E+01  1.344947577E+00
1.918438088E+01  1.992749021E-04
1.919095650E+01  -4.485261142E-01
1.919753213E+01  4.785814583E-01
1.920410775E+01  1.593603015E+00
1.921068337E+01  2.011627197E+00
1.921725900E+01  1.710390091E+00
1.922383462E+01  1.360454679E+00
1.923041024E+01  1.389789224E+00
1.923698587E+01  1.142593384E+00
1.924356149E+01  2.035673857E+00
1.925013711E+01  3.089299917E+00
1.925671274E+01  3.132320881E+00
1.926328836E+01  3.232303858E+00
1.926986398E+01  4.198826790E+00
1.927643961E+01  4.468026638E+00
1.928301523E+01  4.259041786E+00
1.928959085E+01  4.129829407E+00
1.929616648E+01  4.319613457E+00
1.930274210E+01  4.991818905E+00
1.930931772E+01  4.580211639E+00
1.931589335E+01  4.241276264E+00
1.932246897E+01  3.345042229E+00
1.932904459E+01  1.864270210E+00
1.933562022E+01  1.533088326E+00
1.934219584E+01  6.343548894E-01
1.934877146E+01  3.481727839E-01
1.935534709E+01  7.759877443E-01
1.936192271E+01  8.532385230E-01
1.936849833E+01  -6.214010119E-01
1.937507396E+01  -1.164863825E+00
1.938164958E+01  -1.080436587E+00
1.938822520E+01  -4.411486089E-01
1.939480083E+01  1.009835362E+00
1.940137645E+01  1.176643729E+00
1.940795207E+01  7.423897982E-01
1.941452770E+01  -3.913802207E-01
1.942110332E+01  -1.013223410E+00
1.942767894E+01  -4.521822631E-01
1.943425457E+01  1.148160100E-01
1.944083019E+01  3.827840686E-01
1.944740581E+01  5.540217161E-01
1.945398144E+01  -4.607962072E-01
1.946055706E+01  -4.257445037E-02
1.946713268E+01  1.579861194E-01
1.947370831E+01  -2.685596645E-01
1.948028393E+01  2.299510092E-01
1.948685955E+01  -7.628326118E-02
1.949343517E+01  7.520834450E-03
